0.9478324651718141,0.27920645475387573,0.0,0.04922850802540779,0.3556208610534668,0.4864070415496826,0.5510653853416443,0.6105804443359375,0.6267450451850891,0.6546657085418701,0.6774430274963379,0.6847906112670898,0.6774430274963379,0.6943423748016357,0.6972814202308655,0.7207935452461243,0.734019100666046,0.7266715764999389,0.7567964792251587,0.7590007185935974,0.778839111328125,0.7590007185935974,0.7972079515457153,0.83027184009552,0.8721528053283691,0.9088905453681946,0.9257898330688477,0.9544452428817747,0.982365906238556,1.0,0.9948567152023317,0.9676708579063416,0.9279941320419312,0.8692138195037842,0.8096987605094909,0.7582659721374512,0.7016899585723877,0.6715649962425232,0.639970600605011,0.6164584755897522,0.6061719059944153,0.5929463505744934,0.5745775103569031,0.556943416595459,0.5459221005439758,0.5481263995170593,0.5312270522117615,0.5341660380363464,0.532696545124054,0.5304923057556152,0.5371050834655762,0.5385745763778687,0.5312270522117615,0.5481263995170593,0.5731080174446106,0.5562086701393127,0.554004430770874,0.556943416595459,0.5598824620246887,0.5488611459732056,0.5415136218070984,0.5385745763778687,0.529022753238678,0.5172666907310486,0.5231447219848633,0.5135929584503174,0.529757559299469,0.5143277049064636,0.5077149271965027,0.49522408843040466,0.49669361114501953,0.491550326347351,0.48346802592277527,0.4695077240467071,0.48861131072044367,0.48787656426429743,0.5011021494865417,0.5069801807403564,0.5055106282234192,0.498163104057312,0.4819985330104828,0.4842028021812439,0.501836895942688,0.5304923057556152,0.6164584755897522,0.6252755522727966,0.6245408058166504,0.6502571702003479,0.0,0.0,0.0,0.0,0.0,0.0,0.0,0.0,0.0,0.0,0.0,0.0,0.0,0.0,0.0,0.0,0.0,0.0,0.0,0.0,0.0,0.0,0.0,0.0,0.0,0.0,0.0,0.0,0.0,0.0,0.0,0.0,0.0,0.0,0.0,0.0,0.0,0.0,0.0,0.0,0.0,0.0,0.0,0.0,0.0,0.0,0.0,0.0,0.0,0.0,0.0,0.0,0.0,0.0,0.0,0.0,0.0,0.0,0.0,0.0,0.0,0.0,0.0,0.0,0.0,0.0,0.0,0.0,0.0,0.0,0.0,0.0,0.0,0.0,0.0,0.0,0.0,0.0,0.0,0.0,0.0,0.0,0.0,0.0,0.0,0.0,0.0,0.0,0.0,0.0,0.0,0.0,0.0,0.0,0.0,0.0,0.0,0.0,0.0,1.0
1.0,0.6274944543838501,0.43192905187606806,0.2662971317768097,0.21973392367362976,0.1396895796060562,0.12949001789093015,0.117960087954998,0.11064301431179047,0.10310421139001846,0.09844789654016495,0.10088691860437392,0.09778270870447159,0.09445676207542421,0.08780487626791,0.09113082289695741,0.08691795915365219,0.0886917933821678,0.08980043977499008,0.09113082289695741,0.08957871049642563,0.08603104203939438,0.07760532200336456,0.08647450059652328,0.0840354785323143,0.08181817829608917,0.08137471973896027,0.08181817829608917,0.08181817829608917,0.08337029069662094,0.08159644901752472,0.09290465712547302,0.09135255217552184,0.10155210644006728,0.10665188729763032,0.11485587805509569,0.11729490011930464,0.11662971228361128,0.1212860345840454,0.13370288908481595,0.13525499403476715,0.13259422779083252,0.13370288908481595,0.13059866428375244,0.13192903995513916,0.13281597197055817,0.13104212284088135,0.12727272510528564,0.12483370304107666,0.12483370304107666,0.127937912940979,0.13259422779083252,0.12572062015533447,0.12904655933380127,0.12638580799102783,0.11906873434782028,0.12239468097686768,0.12283813953399658,0.12261641025543212,0.12106429785490036,0.11640798300504684,0.11086474359035492,0.10266075283288956,0.11308203637599944,0.10886918008327484,0.11441241949796677,0.10798226296901701,0.12594234943389893,0.1572062075138092,0.160532146692276,0.14900222420692444,0.16962306201457977,0.1671840399503708,0.18603104352951047,0.17272727191448212,0.1492239534854889,0.14900222420692444,0.1312638521194458,0.12394678592681883,0.12150776386260986,0.095343679189682,0.0915742814540863,0.09844789654016495,0.10110864788293839,0.11064301431179047,0.10399112850427628,0.07516629993915558,0.0,0.1492239534854889,0.46075388789176946,0.8350332379341124,0.8946784734725952,0.5771618485450745,0.40886917710304255,0.23813746869564056,0.20133037865161896,0.12217295169830322,0.08758314698934555,0.08625277131795883,0.08425720781087875,0.07605321705341339,0.0689578726887703,0.06407982110977173,0.0585365854203701,0.05898004397749901,0.05521064251661301,0.05166297033429146,0.04323725029826164,0.05764966830611229,0.0,0.0,0.0,0.0,0.0,0.0,0.0,0.0,0.0,0.0,0.0,0.0,0.0,0.0,0.0,0.0,0.0,0.0,0.0,0.0,0.0,0.0,0.0,0.0,0.0,0.0,0.0,0.0,0.0,0.0,0.0,0.0,0.0,0.0,0.0,0.0,0.0,0.0,0.0,0.0,0.0,0.0,0.0,0.0,0.0,0.0,0.0,0.0,0.0,0.0,0.0,0.0,0.0,0.0,0.0,0.0,0.0,0.0,0.0,0.0,0.0,0.0,0.0,0.0,0.0,0.0,0.0,0.0,0.0,0.0,0.0,0.0,0.0,0.0,0.0,0.0,0.0,0.0,1.0
1.0,0.5259875059127808,0.19698545336723328,0.048856548964977264,0.019750520586967468,0.0800415799021721,0.20114345848560333,0.2869022786617279,0.3518711030483246,0.3601871132850647,0.3835758864879608,0.39604988694190973,0.395010381937027,0.3996881544589996,0.4054054021835327,0.40176716446876526,0.4256756901741028,0.41216215491294866,0.43347194790840143,0.42151767015457153,0.45634096860885615,0.4688149690628052,0.48128896951675415,0.4833679795265198,0.4989604949951172,0.5197505354881287,0.545218288898468,0.5571725368499756,0.5805613398551941,0.5821205973625183,0.5992723703384399,0.5748440623283386,0.5758835673332214,0.5691268444061279,0.524948000907898,0.484927237033844,0.4527027010917663,0.4267151653766632,0.39397090673446655,0.3695426285266876,0.37110185623168945,0.3544698655605316,0.36486485600471497,0.36798337101936335,0.3581081032752991,0.3794178664684296,0.3435550928115845,0.3643451035022735,0.3591476082801819,0.3601871132850647,0.354989618062973,0.36798337101936335,0.37266111373901367,0.382536381483078,0.3581081032752991,0.3622661232948303,0.3596673607826233,0.3607068657875061,0.3695426285266876,0.35706859827041626,0.3513513505458832,0.34823283553123474,0.3539501130580902,0.36798337101936335,0.3601871132850647,0.3586278557777405,0.3518711030483246,0.3544698655605316,0.35031184554100037,0.34199583530426025,0.34979209303855896,0.36174637079238886,0.34979209303855896,0.34303534030914307,0.3508315980434418,0.3659043610095978,0.39708939194679266,0.45062369108200073,0.45114344358444214,0.4948025047779083,0.5155925154685974,0.47349271178245544,0.4438669383525848,0.4350311756134034,0.38617464900016785,0.31340956687927246,0.30613306164741516,0.30613306164741516,0.29781705141067505,0.28898128867149353,0.295218288898468,0.2713097631931305,0.4043658971786499,0.5062370300292969,0.49636173248291016,0.8544698357582092,0.5774428248405457,0.19646570086479187,0.0,0.006756756920367479,0.037941787391901016,0.13721413910388947,0.2520790100097656,0.3378378450870514,0.3445945978164673,0.35654884576797485,0.3737006187438965,0.3747401237487793,0.3814968764781952,0.37993761897087097,0.3846153914928436,0.39604988694190973,0.4007276594638824,0.4158004224300385,0.41632017493247986,0.0,0.0,0.0,0.0,0.0,0.0,0.0,0.0,0.0,0.0,0.0,0.0,0.0,0.0,0.0,0.0,0.0,0.0,0.0,0.0,0.0,0.0,0.0,0.0,0.0,0.0,0.0,0.0,0.0,0.0,0.0,0.0,0.0,0.0,0.0,0.0,0.0,0.0,0.0,0.0,0.0,0.0,0.0,0.0,0.0,0.0,0.0,0.0,0.0,0.0,0.0,0.0,0.0,0.0,0.0,0.0,0.0,0.0,0.0,0.0,0.0,0.0,0.0,0.0,0.0,0.0,0.0,0.0,0.0,0.0,0.0,0.0,1.0
0.9710766077041626,0.893411874771118,0.595072329044342,0.4525977373123169,0.27637922763824463,0.208355650305748,0.1322977989912033,0.09641135483980179,0.11997857689857482,0.09426888078451157,0.12212105095386504,0.11730048060417177,0.12801285088062286,0.11837171763181686,0.1023031622171402,0.1178361028432846,0.13818961381912231,0.13818961381912231,0.152651309967041,0.1274772435426712,0.14140331745147705,0.16871987283229828,0.1821103394031525,0.22495983541011808,0.2501339018344879,0.23674343526363373,0.2329941093921661,0.2560257017612457,0.2565613389015198,0.2806641757488251,0.2854847311973572,0.27262988686561584,0.2608462870121002,0.25549009442329407,0.23031601309776303,0.23138725757598877,0.19764328002929688,0.17836101353168488,0.19175148010253903,0.1564006358385086,0.19282270967960355,0.16336368024349213,0.1708623468875885,0.16818425059318542,0.17139796912670135,0.21906802058219907,0.2153186947107315,0.24156400561332703,0.22495983541011808,0.23085163533687592,0.252811998128891,0.23513658344745636,0.24745580554008484,0.2576325535774231,0.22710230946540833,0.2383503019809723,0.2453133314847946,0.2501339018344879,0.26191750168800354,0.22174611687660217,0.252811998128891,0.24852705001831055,0.2512051463127136,0.24156400561332703,0.22656668722629547,0.2206748723983765,0.22281736135482788,0.2297803908586502,0.216389924287796,0.18103909492492676,0.17728976905345917,0.15747188031673431,0.152651309967041,0.1788966208696365,0.1419389396905899,0.1853240430355072,0.20514193177223203,0.2104981243610382,0.1912158578634262,0.19282270967960355,0.2297803908586502,0.17139796912670135,0.1596143543720245,0.1671130210161209,0.16818425059318542,0.1649705469608307,0.12694162130355835,0.09908945113420486,0.11140868067741394,0.07552222907543182,0.0637386217713356,0.05570434033870697,0.04874129593372345,0.04767005890607834,0.01124799158424139,0.044456347823143005,0.01660417765378952,0.0,0.036422066390514374,0.07766470313072205,0.3454740345478058,0.8200321197509767,1.0,0.7005891799926758,0.42581680417060846,0.2860203683376312,0.21853239834308624,0.12801285088062286,0.06802356988191605,0.06480985879898071,0.03856454044580459,0.06588109582662582,0.05516871809959411,0.053026244044303894,0.07498660683631897,0.0589180514216423,0.05731119588017464,0.07927155494689941,0.07230851799249649,0.08998393267393112,0.1033743992447853,0.11890733987092972,0.0,0.0,0.0,0.0,0.0,0.0,0.0,0.0,0.0,0.0,0.0,0.0,0.0,0.0,0.0,0.0,0.0,0.0,0.0,0.0,0.0,0.0,0.0,0.0,0.0,0.0,0.0,0.0,0.0,0.0,0.0,0.0,0.0,0.0,0.0,0.0,0.0,0.0,0.0,0.0,0.0,0.0,0.0,0.0,0.0,0.0,0.0,0.0,0.0,0.0,0.0,0.0,0.0,0.0,0.0,0.0,0.0,0.0,0.0,0.0,0.0,0.0,0.0,0.0,0.0,1.0
0.9502529501914978,0.5113828182220459,0.11720067262649536,0.009696458466351032,0.0497470498085022,0.005059021990746259,0.022344013676047325,0.028667790815234184,0.03077571652829647,0.019392916932702065,0.0063237776048481464,0.01475548092275858,0.024873524904251095,0.025295110419392582,0.024030353873968124,0.007588532753288746,0.026138279587030407,0.03372681140899658,0.03709949553012848,0.05522765591740608,0.03499156981706619,0.05227655917406082,0.0678752139210701,0.06871838122606277,0.0927487388253212,0.07209106534719467,0.08895447105169296,0.08853287994861603,0.08178751915693283,0.09443507343530655,0.06829679757356644,0.07546374201774597,0.06576728820800781,0.05101180449128151,0.05564923956990241,0.02192242816090584,0.03667790815234184,0.03583473712205887,0.031197302043437954,0.048482295125722885,0.015598651021718977,0.030354131013154984,0.04215851426124573,0.04215851426124573,0.06239460408687591,0.028667790815234184,0.04679595306515694,0.04215851426124573,0.04595278203487396,0.05817875266075134,0.026981450617313385,0.04932546243071556,0.054806072264909744,0.05227655917406082,0.06492411345243454,0.033305227756500244,0.05691399797797203,0.05185497552156448,0.04215851426124573,0.06028667837381363,0.028246205300092697,0.04763912409543991,0.050168633460998535,0.044266439974308014,0.06028667837381363,0.028246205300092697,0.04468802735209465,0.05269814655184746,0.08178751915693283,0.12015177309513092,0.07504215836524963,0.0994940996170044,0.10919055342674255,0.12015177309513092,0.14418213069438934,0.1188870146870613,0.13195616006851196,0.1087689697742462,0.07082630693912506,0.07715008407831192,0.03878583386540413,0.04258010163903236,0.04342327266931534,0.0231871847063303,0.04595278203487396,0.005902192089706659,0.020657673478126522,0.026559865102171894,0.01981450244784355,0.04342327266931534,0.016441822052001953,0.020657673478126522,0.0,0.14671163260936737,0.4249578416347504,0.7289207577705384,1.0,0.7786678075790405,0.23861719667911527,0.0792580097913742,0.057757165282964706,0.0779932513833046,0.07715008407831192,0.08136593550443649,0.09907251596450804,0.06155143305659294,0.08516020327806471,0.08853287994861603,0.08431702852249146,0.10539629310369492,0.07967959344387054,0.10160202533006668,0.1108768954873085,0.0893760547041893,0.12858347594738007,0.10244519263505936,0.1302698105573654,0.13490724563598633,0.0,0.0,0.0,0.0,0.0,0.0,0.0,0.0,0.0,0.0,0.0,0.0,0.0,0.0,0.0,0.0,0.0,0.0,0.0,0.0,0.0,0.0,0.0,0.0,0.0,0.0,0.0,0.0,0.0,0.0,0.0,0.0,0.0,0.0,0.0,0.0,0.0,0.0,0.0,0.0,0.0,0.0,0.0,0.0,0.0,0.0,0.0,0.0,0.0,0.0,0.0,0.0,0.0,0.0,0.0,0.0,0.0,0.0,0.0,0.0,0.0,0.0,0.0,0.0,0.0,0.0,0.0,0.0,0.0,1.0
1.0,0.2643410861492157,0.1782945692539215,0.0,0.12713178992271423,0.25968992710113525,0.24186046421527865,0.3062015473842621,0.26356589794158936,0.2868216931819916,0.3046511709690094,0.2705426216125488,0.33643409609794617,0.27674418687820435,0.31162789463996887,0.33643409609794617,0.3100775182247162,0.3720930218696594,0.341085284948349,0.3751938045024872,0.41007751226425165,0.3922480642795562,0.48604652285575867,0.4658914804458618,0.5325581431388855,0.5906976461410522,0.6000000238418579,0.6790697574615479,0.6612403392791748,0.6984496116638184,0.708527147769928,0.6465116143226624,0.6542635560035706,0.5558139681816101,0.5147286653518677,0.4674418568611145,0.36666667461395264,0.3860464990139007,0.3007752001285553,0.30542635917663574,0.2945736348628998,0.24031007289886472,0.302325576543808,0.2550387680530548,0.2697674334049225,0.289147287607193,0.2395348846912384,0.2945736348628998,0.25581395626068115,0.27286821603775024,0.28062015771865845,0.22713178396224976,0.2829457223415375,0.2449612468481064,0.2565891444683075,0.262790709733963,0.21782945096492767,0.27441859245300293,0.22713178396224976,0.2263565957546234,0.2449612468481064,0.197674423456192,0.25348836183547974,0.20930232107639313,0.2317829430103302,0.24341085553169248,0.2023255825042725,0.2666666805744171,0.25038760900497437,0.34418603777885437,0.3906976878643036,0.3356589078903198,0.39844959974288946,0.367441862821579,0.33255812525749207,0.302325576543808,0.25426357984542847,0.31162789463996887,0.24186046421527865,0.22558139264583588,0.21782945096492767,0.1875969022512436,0.25348836183547974,0.21395349502563477,0.22093023359775543,0.210852712392807,0.15581394731998444,0.2984496057033539,0.3062015473842621,0.37364339828491205,0.9666666388511655,0.3767441809177398,0.1496123969554901,0.0031007751822471614,0.096124030649662,0.24806201457977295,0.22480620443820953,0.29767441749572754,0.2387596964836121,0.24806201457977295,0.27906978130340576,0.24806201457977295,0.30387598276138306,0.27674418687820435,0.2775193750858307,0.3069767355918884,0.28449612855911255,0.0,0.0,0.0,0.0,0.0,0.0,0.0,0.0,0.0,0.0,0.0,0.0,0.0,0.0,0.0,0.0,0.0,0.0,0.0,0.0,0.0,0.0,0.0,0.0,0.0,0.0,0.0,0.0,0.0,0.0,0.0,0.0,0.0,0.0,0.0,0.0,0.0,0.0,0.0,0.0,0.0,0.0,0.0,0.0,0.0,0.0,0.0,0.0,0.0,0.0,0.0,0.0,0.0,0.0,0.0,0.0,0.0,0.0,0.0,0.0,0.0,0.0,0.0,0.0,0.0,0.0,0.0,0.0,0.0,0.0,0.0,0.0,0.0,0.0,0.0,0.0,0.0,0.0,0.0,0.0,1.0
0.9307795763015747,0.7560483813285828,0.2896505296230316,0.0,0.07594086229801178,0.26478493213653564,0.3427419364452362,0.4301075339317322,0.4025537669658661,0.4435483813285827,0.4522849321365357,0.44825267791748047,0.48924732208251953,0.4529569745063782,0.4952957034111023,0.49462366104125977,0.4724462330341339,0.4979838728904724,0.44825267791748047,0.4845430254936218,0.46370968222618103,0.4543010890483856,0.5033602118492126,0.47110214829444885,0.5100806355476379,0.48857527971267695,0.4556451737880706,0.5040322542190552,0.4543010890483856,0.48185482621192927,0.46774193644523615,0.4354838728904724,0.46841397881507874,0.41801074147224426,0.4495967626571655,0.43884408473968506,0.41733869910240173,0.4630376398563385,0.41935482621192927,0.4442204236984253,0.4334677457809448,0.42809140682220453,0.4744623601436615,0.44086021184921265,0.47580644488334656,0.46169355511665344,0.43413978815078735,0.4791666567325592,0.4435483813285827,0.47782257199287415,0.4630376398563385,0.44892472028732294,0.48185482621192927,0.4422042965888977,0.46908602118492126,0.45967742800712585,0.4381720423698426,0.46841397881507874,0.4287634491920471,0.4603494703769684,0.4852150678634643,0.5336021780967712,0.6034946441650391,0.5732526779174805,0.6888440847396851,0.7694892287254332,0.7291666865348816,0.6626344323158264,0.524193525314331,0.5040322542190552,0.4657258093357086,0.42809140682220453,0.4744623601436615,0.42137095332145685,0.4670698940753937,0.4724462330341339,0.4529569745063782,0.47782257199287415,0.5107526779174805,0.7815860509872437,1.0,0.7654569745063783,0.3467741906642914,0.15927419066429138,0.27217742800712585,0.4314516186714172,0.5026881694793701,0.6034946441650391,0.5618279576301575,0.6115591526031494,0.6081989407539368,0.5873655676841736,0.649193525314331,0.6196236610412598,0.664650559425354,0.6606183052062988,0.0,0.0,0.0,0.0,0.0,0.0,0.0,0.0,0.0,0.0,0.0,0.0,0.0,0.0,0.0,0.0,0.0,0.0,0.0,0.0,0.0,0.0,0.0,0.0,0.0,0.0,0.0,0.0,0.0,0.0,0.0,0.0,0.0,0.0,0.0,0.0,0.0,0.0,0.0,0.0,0.0,0.0,0.0,0.0,0.0,0.0,0.0,0.0,0.0,0.0,0.0,0.0,0.0,0.0,0.0,0.0,0.0,0.0,0.0,0.0,0.0,0.0,0.0,0.0,0.0,0.0,0.0,0.0,0.0,0.0,0.0,0.0,0.0,0.0,0.0,0.0,0.0,0.0,0.0,0.0,0.0,0.0,0.0,0.0,0.0,0.0,0.0,0.0,0.0,0.0,0.0,1.0
0.9652677178382872,0.14616498351097107,0.22286541759967804,0.23733718693256375,0.329956591129303,0.28654125332832336,0.1649782955646515,0.1606367528438568,0.12011577188968658,0.138929083943367,0.1606367528438568,0.10853835195302965,0.12735167145729065,0.12590448558330536,0.17510853707790375,0.22141823172569272,0.22286541759967804,0.28075253963470453,0.29377713799476624,0.31548479199409485,0.35745295882225037,0.3415340185165405,0.3545586168766022,0.37916064262390137,0.38784369826316833,0.44138929247856146,0.41099855303764343,0.4486251771450042,0.45296671986579895,0.4442836344242096,0.4399421215057373,0.383502185344696,0.31837916374206543,0.3502170741558075,0.3039073944091797,0.308248907327652,0.231548473238945,0.23733718693256375,0.20549927651882172,0.17945007979869843,0.1910274922847748,0.1374819129705429,0.1910274922847748,0.1780028939247131,0.17510853707790375,0.1649782955646515,0.15340086817741394,0.18668596446514127,0.23299565911293027,0.2098408043384552,0.2098408043384552,0.15050651133060455,0.20549927651882172,0.20549927651882172,0.15774239599704742,0.18668596446514127,0.12011577188968658,0.15484803915023804,0.17510853707790375,0.15774239599704742,0.16642546653747559,0.12445730715990067,0.1635311096906662,0.13458755612373352,0.12156295031309128,0.14037626981735227,0.08248914778232574,0.08248914778232574,0.14037626981735227,0.08248914778232574,0.12735167145729065,0.08104196935892105,0.0709117203950882,0.09696092456579208,0.047756873071193695,0.08104196935892105,0.02749638259410858,0.10564399510622025,0.08393632620573044,0.05643994361162186,0.09406656771898268,0.0694645419716835,0.09696092456579208,0.09696092456579208,0.08972503989934921,0.11287988722324371,0.06222865357995033,0.10130245983600616,0.06801736354827881,0.047756873071193695,0.05354558676481247,0.0,0.04341534152626991,0.059334296733140945,0.05499276518821716,0.12156295031309128,0.046309694647789,0.0882778614759445,0.08104196935892105,0.08538350462913513,0.10998553037643433,0.1143270656466484,0.16787265241146088,0.185238778591156,0.1837916076183319,0.18668596446514127,0.17221418023109436,0.2243125885725021,0.3545586168766022,0.3516642451286316,0.45296671986579895,0.424023151397705,0.5340086817741394,0.502170741558075,0.4761215746402741,0.5079594850540161,0.35890015959739685,0.2966714799404144,0.22286541759967804,0.1881331354379654,0.24891461431980133,0.1374819129705429,0.2040521055459976,0.17945007979869843,0.1823444217443466,0.22720694541931152,0.16642546653747559,0.1157742366194725,0.2344428300857544,0.17366136610507965,0.3719247579574585,1.0,0.6931982636451721,0.4384949207305908,0.41244572401046753,0.6193921566009521,0.5369030237197876,0.555716335773468,0.5166425704956055,0.47756874561309814,0.40520983934402466,0.35890015959739685,0.42981186509132385,0.424023151397705,0.4384949207305908,0.46599131822586054,0.4356005787849426,0.5311143398284912,0.502170741558075,0.5311143398284912,0.5238784551620483,0.5036179423332214,0.5224312543869019,0.5571635365486145,0.0,0.0,0.0,0.0,0.0,0.0,0.0,0.0,0.0,0.0,0.0,0.0,0.0,0.0,0.0,0.0,0.0,0.0,0.0,0.0,0.0,0.0,0.0,0.0,0.0,0.0,0.0,0.0,0.0,0.0,0.0,0.0,0.0,1.0
0.9656593203544616,0.4010989069938659,0.29716116189956665,0.0,0.011904762126505373,0.1011904776096344,0.08516483753919601,0.06868132203817368,0.0782967060804367,0.05219780281186104,0.09065934270620346,0.08195970952510834,0.0723443254828453,0.08974359184503555,0.05677655711770058,0.09661172330379486,0.09294871985912323,0.09340659528970718,0.10760073363780975,0.0842490866780281,0.10943223536014555,0.0970695987343788,0.09294871985912323,0.10485348105430604,0.07646520435810089,0.09798534959554672,0.09111721813678741,0.08516483753919601,0.09890110045671464,0.09432234615087509,0.1199633702635765,0.125,0.1295787543058395,0.14560440182685852,0.1190476194024086,0.14102564752101898,0.12820513546466827,0.125,0.13232600688934326,0.11217948794364928,0.1378205120563507,0.1318681389093399,0.125,0.1359890103340149,0.11538461595773696,0.14652015268802643,0.1446886509656906,0.13644689321517944,0.1488095223903656,0.1190476194024086,0.15293040871620178,0.14835165441036224,0.1355311423540115,0.15155677497386932,0.1318681389093399,0.1597985327243805,0.1533882766962051,0.1387362629175186,0.1565934121608734,0.1300366371870041,0.1593406647443771,0.1597985327243805,0.15613552927970886,0.1607142835855484,0.13324175775051117,0.16941392421722412,0.15018315613269803,0.1488095223903656,0.15750916302204132,0.1378205120563507,0.16300366818904877,0.15430402755737305,0.1419413983821869,0.1547619104385376,0.1387362629175186,0.1597985327243805,0.1497252732515335,0.1488095223903656,0.17216117680072784,0.180402934551239,0.21474358439445496,0.21840658783912656,0.21245421469211576,0.2101648300886154,0.19001831114292145,0.19688645005226135,0.18086080253124237,0.16208791732788083,0.1652930378913879,0.14102564752101898,0.14239926636219025,0.13415750861167908,0.13141025602817535,0.14056776463985443,0.12133699655532836,0.14652015268802643,0.3356226980686188,0.4903846085071564,1.0,0.607600748538971,0.4134615361690522,0.018315019086003304,0.06913919746875763,0.1428571492433548,0.10485348105430604,0.13049450516700745,0.12271062284708024,0.1208791211247444,0.1259157508611679,0.09615384787321091,0.13049450516700745,0.12042124569416046,0.11630036681890488,0.12545788288116455,0.09523809701204301,0.1355311423540115,0.1268315017223358,0.0,0.0,0.0,0.0,0.0,0.0,0.0,0.0,0.0,0.0,0.0,0.0,0.0,0.0,0.0,0.0,0.0,0.0,0.0,0.0,0.0,0.0,0.0,0.0,0.0,0.0,0.0,0.0,0.0,0.0,0.0,0.0,0.0,0.0,0.0,0.0,0.0,0.0,0.0,0.0,0.0,0.0,0.0,0.0,0.0,0.0,0.0,0.0,0.0,0.0,0.0,0.0,0.0,0.0,0.0,0.0,0.0,0.0,0.0,0.0,0.0,0.0,0.0,0.0,0.0,0.0,0.0,0.0,0.0,0.0,1.0
1.0,0.7388632893562317,0.48003071546554565,0.27496159076690674,0.19431643187999725,0.35407066345214844,0.3740399479866028,0.48156681656837463,0.4278033673763275,0.43701997399330134,0.4508448541164398,0.41090628504753113,0.46313363313674927,0.4385560750961304,0.42396312952041626,0.4285714328289032,0.4116743505001068,0.503072202205658,0.43778800964355474,0.39324116706848145,0.41397848725318914,0.41935482621192927,0.48156681656837463,0.4777265787124634,0.4777265787124634,0.5637480616569519,0.5053763389587402,0.5522273182868958,0.5860214829444885,0.6144393086433411,0.6635944843292236,0.5668202638626099,0.6797235012054443,0.6351766586303711,0.5913978219032288,0.617511510848999,0.5683563947677612,0.6121351718902588,0.5299538969993591,0.4823348820209503,0.4769585132598877,0.44854071736335754,0.49155145883560175,0.4301075339317322,0.40937021374702454,0.43317973613739014,0.3632872402667999,0.4224270284175873,0.41090628504753113,0.37250384688377375,0.44777265191078186,0.36789554357528687,0.4308755695819854,0.35176652669906616,0.3494623601436615,0.36943164467811584,0.2718893885612488,0.33102917671203613,0.2772657573223114,0.29646697640419006,0.33717358112335205,0.3732718825340271,0.3609831035137177,0.35253456234931946,0.35944700241088867,0.4208909273147583,0.3886328637599945,0.44316434860229487,0.37864822149276733,0.39400920271873474,0.3771121203899383,0.33102917671203613,0.37250384688377375,0.2841781973838806,0.3164362609386444,0.3325652778148651,0.29109063744544983,0.3341013789176941,0.2534562349319458,0.29723501205444336,0.27419355511665344,0.25038403272628784,0.3271889388561249,0.22657449543476105,0.21812595427036283,0.23963133990764615,0.14823348820209503,0.16436251997947693,0.26497694849967957,0.6482334733009338,0.918586790561676,0.6006144285202026,0.3847926259040833,0.151305690407753,0.0,0.014592934399843216,0.02073732763528824,0.1259600669145584,0.11213517934083939,0.1743471622467041,0.16205836832523343,0.18586789071559903,0.22657449543476105,0.1651305705308914,0.2211981564760208,0.28110599517822266,0.2373271882534027,0.36635944247245794,0.28187403082847595,0.0,0.0,0.0,0.0,0.0,0.0,0.0,0.0,0.0,0.0,0.0,0.0,0.0,0.0,0.0,0.0,0.0,0.0,0.0,0.0,0.0,0.0,0.0,0.0,0.0,0.0,0.0,0.0,0.0,0.0,0.0,0.0,0.0,0.0,0.0,0.0,0.0,0.0,0.0,0.0,0.0,0.0,0.0,0.0,0.0,0.0,0.0,0.0,0.0,0.0,0.0,0.0,0.0,0.0,0.0,0.0,0.0,0.0,0.0,0.0,0.0,0.0,0.0,0.0,0.0,0.0,0.0,0.0,0.0,0.0,0.0,0.0,0.0,0.0,0.0,0.0,0.0,0.0,1.0
0.9870483875274657,0.42467620968818665,0.06884799152612686,0.0,0.054533060640096664,0.17109747231006622,0.19768235087394712,0.21540558338165283,0.20381730794906616,0.22426721453666687,0.1922290325164795,0.22017723321914673,0.21676892042160031,0.19086571037769315,0.2031356543302536,0.2126789391040802,0.22290389239788055,0.2453987747430801,0.24199046194553375,0.2774369418621063,0.2733469605445862,0.29447853565216064,0.306748479604721,0.34014996886253357,0.40218132734298706,0.4274028539657593,0.44376277923583984,0.4792092740535736,0.47989094257354736,0.5187457203865051,0.4792092740535736,0.4805726110935211,0.48466256260871887,0.4376278221607208,0.4096796214580536,0.3558282256126404,0.3224267065525055,0.2808452546596527,0.26584866642951965,0.2706203162670135,0.23858213424682617,0.2603953778743744,0.2508520781993866,0.22017723321914673,0.2256305366754532,0.23381049931049344,0.23858213424682617,0.24608044326305387,0.24608044326305387,0.24676209688186643,0.2522154152393341,0.2583503723144531,0.2685753107070923,0.23721881210803983,0.2760736048221588,0.27198365330696106,0.2426721155643463,0.25153374671936035,0.254260390996933,0.24403545260429385,0.2556237280368805,0.2583503723144531,0.24130879342556,0.23721881210803983,0.2678936719894409,0.28493523597717285,0.29447853565216064,0.323790043592453,0.3319700062274933,0.3687798082828522,0.3285616934299469,0.37832310795784,0.4253578782081604,0.32924336194992065,0.30061349272727966,0.2522154152393341,0.23108384013175964,0.21949556469917297,0.18541240692138672,0.19700068235397336,0.1997273415327072,0.2092706263065338,0.2651669979095459,0.3047034740447998,0.6237218976020813,1.0,0.4621676802635193,0.04430811107158661,0.011588275432586668,0.09406953305006029,0.19154737889766693,0.2092706263065338,0.21676892042160031,0.23040218651294708,0.23108384013175964,0.2222222238779068,0.23040218651294708,0.22699385881423953,0.21949556469917297,0.24062712490558624,0.23926380276679993,0.24335378408432007,0.0,0.0,0.0,0.0,0.0,0.0,0.0,0.0,0.0,0.0,0.0,0.0,0.0,0.0,0.0,0.0,0.0,0.0,0.0,0.0,0.0,0.0,0.0,0.0,0.0,0.0,0.0,0.0,0.0,0.0,0.0,0.0,0.0,0.0,0.0,0.0,0.0,0.0,0.0,0.0,0.0,0.0,0.0,0.0,0.0,0.0,0.0,0.0,0.0,0.0,0.0,0.0,0.0,0.0,0.0,0.0,0.0,0.0,0.0,0.0,0.0,0.0,0.0,0.0,0.0,0.0,0.0,0.0,0.0,0.0,0.0,0.0,0.0,0.0,0.0,0.0,0.0,0.0,0.0,0.0,0.0,0.0,0.0,0.0,0.0,1.0
0.9653482437133789,1.0,0.9534476995468141,0.6286314129829407,0.2835141718387604,0.06300315260887146,0.0024501224979758263,0.11480574309825896,0.2429121434688568,0.388869434595108,0.5082254409790039,0.6149807572364807,0.683934211730957,0.7010850310325623,0.7119355797767639,0.7168358564376831,0.7245362401008606,0.7231361865997316,0.715785801410675,0.7189359664916992,0.7266363501548766,0.731536567211151,0.7353867888450623,0.731536567211151,0.7409870624542236,0.745887279510498,0.7500874996185303,0.7605880498886108,0.7651382684707642,0.7833391427993774,0.7938396930694579,0.8137906789779662,0.8197410106658936,0.8323416113853455,0.8379418849945068,0.8375918865203857,0.8347917199134827,0.827441394329071,0.8053902983665465,0.7906895279884337,0.7668883204460144,0.7574378848075867,0.7402870059013367,0.7339866757392883,0.7241861820220947,0.7199860215187073,0.7178859114646912,0.7203360199928284,0.7206860184669495,0.7119355797767639,0.7087854146957397,0.7122856378555298,0.7021350860595703,0.6979349255561829,0.7070353627204895,0.7087854146957397,0.715785801410675,0.7143857479095459,0.7210360765457153,0.7308365702629089,0.7122856378555298,0.7227861285209656,0.7245362401008606,0.729436457157135,0.7409870624542236,0.7483373880386353,0.745887279510498,0.7252362370491027,0.7206860184669495,0.7168358564376831,0.6916345953941345,0.6919845938682556,0.7084354162216187,0.7028351426124573,0.712985634803772,0.7028351426124573,0.7007350325584412,0.6926846504211426,0.6996849775314331,0.7024851441383362,0.6968848705291748,0.7073853611946106,0.7010850310325623,0.7024851441383362,0.7021350860595703,0.7182359099388123,0.8277913928031921,0.936296820640564,0.9740986824035645,0.9523976445198061,0.6835841536521912,0.3244662284851074,0.06510325521230698,0.0,0.08050402253866196,0.20196010172367096,0.3447672426700592,0.47287365794181824,0.586629331111908,0.6664333343505859,0.6951347589492798,0.7077353596687317,0.7038851976394653,0.7175358533859253,0.0,0.0,0.0,0.0,0.0,0.0,0.0,0.0,0.0,0.0,0.0,0.0,0.0,0.0,0.0,0.0,0.0,0.0,0.0,0.0,0.0,0.0,0.0,0.0,0.0,0.0,0.0,0.0,0.0,0.0,0.0,0.0,0.0,0.0,0.0,0.0,0.0,0.0,0.0,0.0,0.0,0.0,0.0,0.0,0.0,0.0,0.0,0.0,0.0,0.0,0.0,0.0,0.0,0.0,0.0,0.0,0.0,0.0,0.0,0.0,0.0,0.0,0.0,0.0,0.0,0.0,0.0,0.0,0.0,0.0,0.0,0.0,0.0,0.0,0.0,0.0,0.0,0.0,0.0,0.0,0.0,0.0,0.0,1.0
1.0,0.9420468807220459,0.8150431513786315,0.6066584587097168,0.35511714220046997,0.21454994380474088,0.19235511124134064,0.14549937844276428,0.16769421100616455,0.13810111582279205,0.13810111582279205,0.1528976559638977,0.16646115481853485,0.14180023968219757,0.14303329586982727,0.19112206995487213,0.1541306972503662,0.17632552981376648,0.08754623681306839,0.13316892087459564,0.11467324197292328,0.053020961582660675,0.05795314535498619,0.05178791657090187,0.0,0.028360050171613693,0.022194821387529373,0.02466091327369213,0.028360050171613693,0.038224413990974426,0.12453760951757432,0.180024653673172,0.2638717591762543,0.28606659173965454,0.31319358944892883,0.34525278210639954,0.34648582339286804,0.39087545871734614,0.3329223096370697,0.34401974081993103,0.3045622706413269,0.3242909908294678,0.3033292293548584,0.2774352729320526,0.26017263531684875,0.28729963302612305,0.28113439679145813,0.295930951833725,0.3304562270641327,0.2638717591762543,0.29099875688552856,0.3378545045852661,0.34278666973114014,0.32182490825653076,0.3242909908294678,0.37361282110214233,0.49691739678382874,0.5782983899116516,0.6633785367012024,0.6300863027572632,0.7163994908332825,0.5819975137710571,0.6670776605606079,0.6559802889823914,0.6362515687942505,0.5252774357795715,0.31935882568359375,0.25647348165512085,0.21454994380474088,0.26140567660331726,0.23551172018051147,0.22934648394584656,0.2219482064247131,0.2133168876171112,0.16892725229263303,0.1898890286684036,0.0924784243106842,0.3255240321159363,0.48581996560096735,0.6029593348503113,0.3366214632987976,0.1528976559638977,0.5363748669624329,0.9099876880645753,0.9753391146659853,0.8471023440361023,0.712700366973877,0.475955605506897,0.28729963302612305,0.23057952523231504,0.16646115481853485,0.16029593348503113,0.149198517203331,0.2441430389881134,0.19605425000190735,0.20221948623657224,0.2157829850912094,0.2416769415140152,0.17755857110023499,0.1787916123867035,0.0,0.0,0.0,0.0,0.0,0.0,0.0,0.0,0.0,0.0,0.0,0.0,0.0,0.0,0.0,0.0,0.0,0.0,0.0,0.0,0.0,0.0,0.0,0.0,0.0,0.0,0.0,0.0,0.0,0.0,0.0,0.0,0.0,0.0,0.0,0.0,0.0,0.0,0.0,0.0,0.0,0.0,0.0,0.0,0.0,0.0,0.0,0.0,0.0,0.0,0.0,0.0,0.0,0.0,0.0,0.0,0.0,0.0,0.0,0.0,0.0,0.0,0.0,0.0,0.0,0.0,0.0,0.0,0.0,0.0,0.0,0.0,0.0,0.0,0.0,0.0,0.0,0.0,0.0,0.0,0.0,0.0,0.0,0.0,0.0,0.0,0.0,1.0
1.0,0.9225013256072998,0.532335638999939,0.2987707257270813,0.3784072697162628,0.29021912813186646,0.21272046864032745,0.257616251707077,0.25387492775917053,0.24425441026687625,0.2683057188987732,0.26349544525146484,0.32068413496017456,0.28059861063957214,0.27525386214256287,0.30304649472236633,0.31480491161346436,0.34526991844177246,0.34580439329147333,0.33939069509506226,0.3682522773742676,0.32816675305366516,0.37145912647247314,0.34313201904296875,0.3025120198726654,0.3025120198726654,0.28433993458747864,0.29770177602767944,0.2800641357898712,0.25654730200767517,0.26937466859817505,0.2613575756549835,0.3003741204738617,0.2688401937484741,0.23570282757282257,0.2383752018213272,0.2608231008052826,0.29556387662887573,0.27685728669166565,0.2570817768573761,0.25654730200767517,0.24265098571777344,0.24853019416332245,0.24853019416332245,0.25440940260887146,0.29823625087738037,0.28808122873306274,0.31640833616256714,0.3254943788051605,0.3062533438205719,0.2907536029815674,0.2586852014064789,0.2870122790336609,0.25013360381126404,0.2725815176963806,0.24639230966567993,0.17637626826763153,0.1614110171794891,0.1624799519777298,0.17797969281673431,0.1774452179670334,0.1667557507753372,0.1416354924440384,0.10048102587461472,0.07055050879716873,0.010154996998608112,0.22875466942787168,0.7712453007698059,0.9160876274108887,0.7172635197639465,0.4115446209907532,0.3062533438205719,0.3345804512500763,0.1945483684539795,0.20523783564567563,0.25066807866096497,0.19989310204982755,0.2763228118419647,0.25227150321006775,0.2720470428466797,0.31266701221466064,0.2741849422454834,0.29396045207977295,0.30518439412117004,0.2720470428466797,0.27685728669166565,0.2832709848880768,0.3115980625152588,0.29609835147857666,0.2832709848880768,0.3067878186702728,0.24104756116867063,0.26563334465026855,0.22127205133438113,0.22180652618408203,0.29182255268096924,0.1950828433036804,0.23356494307518005,0.23516835272312164,0.22715125977993011,0.26937466859817505,0.2132549434900284,0.23570282757282257,0.2586852014064789,0.22127205133438113,0.22768573462963104,0.1929449439048767,0.18278995156288144,0.2185996770858765,0.1699625849723816,0.2132549434900284,0.19134153425693512,0.2191341519355774,0.24959914386272433,0.2570817768573761,0.30732229351997375,0.3014430701732635,0.29556387662887573,0.27525386214256287,0.257616251707077,0.22447888553142548,0.2346338927745819,0.23944415152072904,0.22715125977993011,0.1688936352729797,0.13575628399848935,0.12132549285888672,0.15446285903453827,0.1416354924440384,0.17851416766643524,0.14698022603988647,0.03794762119650841,0.030999464914202687,0.0,0.1699625849723816,0.5355424880981445,0.9123463630676268,0.849278450012207,0.44735434651374817,0.21485836803913116,0.3046499192714691,0.19615179300308228,0.10742918401956558,0.15392838418483734,0.15232495963573456,0.15766969323158264,0.12934260070323944,0.1892036348581314,0.14644575119018555,0.13789416849613187,0.19347941875457764,0.1475147008895874,0.21432389318943024,0.15446285903453827,0.17263495922088623,0.19989310204982755,0.14270444214344025,0.19561731815338135,0.1437733769416809,0.15072153508663175,0.17370390892028809,0.12613575160503387,0.0,0.0,0.0,0.0,0.0,0.0,0.0,0.0,0.0,0.0,0.0,0.0,0.0,0.0,0.0,0.0,0.0,0.0,0.0,0.0,0.0,0.0,0.0,0.0,0.0,1.0
0.9657988548278807,0.3256763517856598,0.01020929031074047,0.017355794087052345,0.12608473002910614,0.28586012125015253,0.3603879511356354,0.3736600279808045,0.4042879045009613,0.43032160401344294,0.42419600486755366,0.42215415835380554,0.4068402349948883,0.42981112003326416,0.41500765085220337,0.42113322019577026,0.422664612531662,0.42368555068969727,0.4389995038509369,0.4190913736820221,0.42725881934165955,0.45022970438003534,0.4216437041759491,0.40224605798721313,0.41602858901023865,0.3930576741695404,0.3496682047843933,0.3644716739654541,0.3491577208042145,0.3547728359699249,0.38948443531990046,0.41602858901023865,0.4170495271682739,0.45022970438003534,0.4675855040550232,0.45941805839538574,0.4425727427005768,0.48392036557197565,0.4583971500396729,0.43950995802879333,0.44971925020217896,0.4328739047050476,0.4318529963493347,0.4451250731945038,0.4379785656929016,0.4405308961868286,0.4333843886852264,0.43542623519897455,0.462991327047348,0.4522715806961059,0.4374680817127228,0.4328739047050476,0.4512506425380706,0.46197038888931274,0.4532924890518189,0.4512506425380706,0.4522715806961059,0.47013783454895014,0.4803471267223358,0.4675855040550232,0.4869831502437591,0.525268018245697,0.5273098349571228,0.5385400652885437,0.5543644428253174,0.5783563256263733,0.5752935409545898,0.545176088809967,0.5339459180831909,0.49106687307357794,0.5053598880767822,0.44206228852272034,0.4078611433506012,0.392547219991684,0.3721286356449127,0.3976518511772156,0.3828483819961548,0.38386932015419006,0.3930576741695404,0.3726390898227691,0.3670240044593811,0.621745765209198,1.0,0.6028586030006409,0.04389994964003563,0.0,0.07401735335588454,0.20775906741619113,0.3522205352783203,0.3976518511772156,0.4201123118400574,0.39561000466346735,0.4318529963493347,0.4170495271682739,0.42521694302558893,0.4481878578662872,0.42470648884773254,0.42470648884773254,0.41602858901023865,0.0,0.0,0.0,0.0,0.0,0.0,0.0,0.0,0.0,0.0,0.0,0.0,0.0,0.0,0.0,0.0,0.0,0.0,0.0,0.0,0.0,0.0,0.0,0.0,0.0,0.0,0.0,0.0,0.0,0.0,0.0,0.0,0.0,0.0,0.0,0.0,0.0,0.0,0.0,0.0,0.0,0.0,0.0,0.0,0.0,0.0,0.0,0.0,0.0,0.0,0.0,0.0,0.0,0.0,0.0,0.0,0.0,0.0,0.0,0.0,0.0,0.0,0.0,0.0,0.0,0.0,0.0,0.0,0.0,0.0,0.0,0.0,0.0,0.0,0.0,0.0,0.0,0.0,0.0,0.0,0.0,0.0,0.0,0.0,0.0,0.0,0.0,0.0,1.0
0.9432623982429504,0.7723404169082642,0.5879432559013367,0.5361701846122742,0.5255318880081177,0.5099290609359741,0.5056737661361694,0.49148935079574585,0.49290779232978815,0.5021276473999023,0.49787235260009766,0.4851063787937164,0.4758865237236023,0.4829787313938141,0.4872340559959411,0.4829787313938141,0.49148935079574585,0.49007090926170355,0.49929079413414,0.4971631169319153,0.49432623386383057,0.4858156144618988,0.49503546953201294,0.49148935079574585,0.48014184832572937,0.46241134405136114,0.46382978558540344,0.458156019449234,0.49290779232978815,0.5,0.5049645304679871,0.5134751796722412,0.5134751796722412,0.5113475322723389,0.5063830018043518,0.5099290609359741,0.5,0.4921985864639282,0.4893617033958435,0.5078014135360718,0.4985815584659576,0.5134751796722412,0.521276593208313,0.5248227119445801,0.5255318880081177,0.5177304744720459,0.5255318880081177,0.521276593208313,0.5219858288764954,0.5283687710762024,0.5255318880081177,0.5248227119445801,0.5262411236763,0.519858181476593,0.5141844153404236,0.5148935914039612,0.5070921778678894,0.5191489458084106,0.5219858288764954,0.521276593208313,0.5170212984085083,0.5226950645446777,0.5099290609359741,0.5120567083358765,0.5170212984085083,0.5156028270721436,0.5134751796722412,0.5148935914039612,0.5170212984085083,0.5226950645446777,0.5375886559486389,0.5489361882209778,0.585106372833252,0.6042553186416626,0.6205673813819885,0.6517730355262756,0.651063859462738,0.6156028509140015,0.6042553186416626,0.5602836608886719,0.5453900694847107,0.5319148898124695,0.5255318880081177,0.4645390212535858,0.44184398651123047,0.4588652551174164,0.46312057971954346,0.46312057971954346,0.46382978558540344,0.49432623386383057,0.4865248203277588,0.47801417112350464,0.49787235260009766,0.4829787313938141,0.47446808218955994,0.48226949572563166,0.457446813583374,0.4546099305152893,0.41063830256462097,0.19007092714309692,0.0,0.49929079413414,1.0,0.6425532102584839,0.7531914710998534,0.8836879730224609,0.6836879253387451,0.5666666626930237,0.519858181476593,0.5156028270721436,0.4843971729278565,0.49078014492988586,0.4765957593917846,0.49148935079574585,0.48794326186180115,0.49432623386383057,0.5028368830680847,0.48226949572563166,0.46666666865348816,0.4751773178577423,0.4695035517215729,0.4758865237236023,0.0,0.0,0.0,0.0,0.0,0.0,0.0,0.0,0.0,0.0,0.0,0.0,0.0,0.0,0.0,0.0,0.0,0.0,0.0,0.0,0.0,0.0,0.0,0.0,0.0,0.0,0.0,0.0,0.0,0.0,0.0,0.0,0.0,0.0,0.0,0.0,0.0,0.0,0.0,0.0,0.0,0.0,0.0,0.0,0.0,0.0,0.0,0.0,0.0,0.0,0.0,0.0,0.0,0.0,0.0,0.0,0.0,0.0,0.0,0.0,0.0,0.0,0.0,0.0,0.0,1.0
1.0,0.5718321204185486,0.12631154060363767,0.04398708790540695,0.009685230441391468,0.029459241777658463,0.06739305704832077,0.0738498792052269,0.08878127485513686,0.08958838135004044,0.08757062256336212,0.09362389147281647,0.09402744472026825,0.10250201821327208,0.10209846496582033,0.1045197769999504,0.1190476194024086,0.11259079724550249,0.12913639843463895,0.12187247723340988,0.1545601338148117,0.1646489053964615,0.17191283404827115,0.19249394536018372,0.2195318788290024,0.2461662590503693,0.27966102957725525,0.3002421259880066,0.32041969895362854,0.34140434861183167,0.34382566809654236,0.35391443967819214,0.3482647240161896,0.3240516483783722,0.28934624791145325,0.2469733655452728,0.1997578740119934,0.17514124512672424,0.12994350492954254,0.12711864709854123,0.10250201821327208,0.10855528712272644,0.10411622375249863,0.09523809701204301,0.08555286377668381,0.09079903364181519,0.08192090690135956,0.08434221148490906,0.0879741758108139,0.0782889425754547,0.09927360713481904,0.10169491171836852,0.09443099051713943,0.10774818062782288,0.1045197769999504,0.11541565507650375,0.11945117264986038,0.1117836982011795,0.11743341386318205,0.11097659170627593,0.1093623861670494,0.11460855603218079,0.0996771603822708,0.10330911725759506,0.0996771603822708,0.11259079724550249,0.15294592082500455,0.17433413863182068,0.16384181380271912,0.21347860991954803,0.22074253857135773,0.17675544321537015,0.15092816948890686,0.1234866827726364,0.12227603048086166,0.08353511244058609,0.0742534324526787,0.05972558632493019,0.05407586693763733,0.05972558632493019,0.05569007247686386,0.049636803567409515,0.04882970079779625,0.06820016354322433,0.06981436908245087,0.06255044043064117,0.0714285746216774,0.2062146961688995,0.3845843374729157,0.7167070508003235,0.9741727113723755,0.7719935178756714,0.32728007435798645,0.08837772160768509,0.0,0.024213075637817383,0.04882970079779625,0.06981436908245087,0.07909604161977768,0.08071024715900421,0.07949959486722946,0.09402744472026825,0.0980629548430443,0.10330911725759506,0.09564164280891417,0.10169491171836852,0.1049233227968216,0.11460855603218079,0.0,0.0,0.0,0.0,0.0,0.0,0.0,0.0,0.0,0.0,0.0,0.0,0.0,0.0,0.0,0.0,0.0,0.0,0.0,0.0,0.0,0.0,0.0,0.0,0.0,0.0,0.0,0.0,0.0,0.0,0.0,0.0,0.0,0.0,0.0,0.0,0.0,0.0,0.0,0.0,0.0,0.0,0.0,0.0,0.0,0.0,0.0,0.0,0.0,0.0,0.0,0.0,0.0,0.0,0.0,0.0,0.0,0.0,0.0,0.0,0.0,0.0,0.0,0.0,0.0,0.0,0.0,0.0,0.0,0.0,0.0,0.0,0.0,0.0,0.0,0.0,0.0,0.0,0.0,1.0
1.0,0.6627385020256042,0.25196409225463867,0.04264871031045914,0.07014590501785278,0.08136925101280212,0.09708192944526672,0.07014590501785278,0.06565656512975693,0.0712682381272316,0.04040404036641121,0.06734006851911545,0.04657687991857529,0.05162738636136055,0.058361392468214035,0.018518518656492233,0.053310886025428765,0.03423120081424713,0.02693602629005909,0.035353533923625946,0.008417508564889431,0.014590348117053509,0.006172839552164078,0.008978676050901413,0.007856341078877449,0.0,0.05218855291604996,0.08024691045284273,0.1262626200914383,0.15039281547069547,0.15432098507881165,0.19416385889053345,0.19023568928241727,0.18799102306365967,0.19472502171993256,0.1672278344631195,0.18406285345554352,0.1750841736793518,0.182379350066185,0.17564533650875092,0.15712682902812955,0.1913580298423767,0.17059484124183655,0.17564533650875092,0.17732883989810944,0.14927048981189728,0.1672278344631195,0.1509539783000946,0.15881033241748807,0.16273850202560425,0.13355779647827148,0.1582491546869278,0.14590348303318024,0.14927048981189728,0.1498316526412964,0.12065095454454422,0.15488214790821075,0.14590348303318024,0.13916946947574615,0.152076318860054,0.1296296268701553,0.15656565129756927,0.17283950746059415,0.2132435441017151,0.22558923065662384,0.21099887788295743,0.2760942876338959,0.2637485861778259,0.23232322931289673,0.22727273404598236,0.15432098507881165,0.13187429308891296,0.12008978426456451,0.12345679104328156,0.12850730121135712,0.09764309972524643,0.10998877882957458,0.09090909361839294,0.08361391723155975,0.10830527544021606,0.24354657530784607,0.49158248305320734,0.5735129117965698,0.7918069362640381,0.9859707951545716,0.4438832700252533,0.16386082768440247,0.07463524490594864,0.07407407462596893,0.1111111119389534,0.040965206921100616,0.06397306174039841,0.05555555596947669,0.04264871031045914,0.04994388297200203,0.02469135820865631,0.02693602629005909,0.008417508564889431,0.014029180631041527,0.0,0.0,0.0,0.0,0.0,0.0,0.0,0.0,0.0,0.0,0.0,0.0,0.0,0.0,0.0,0.0,0.0,0.0,0.0,0.0,0.0,0.0,0.0,0.0,0.0,0.0,0.0,0.0,0.0,0.0,0.0,0.0,0.0,0.0,0.0,0.0,0.0,0.0,0.0,0.0,0.0,0.0,0.0,0.0,0.0,0.0,0.0,0.0,0.0,0.0,0.0,0.0,0.0,0.0,0.0,0.0,0.0,0.0,0.0,0.0,0.0,0.0,0.0,0.0,0.0,0.0,0.0,0.0,0.0,0.0,0.0,0.0,0.0,0.0,0.0,0.0,0.0,0.0,0.0,0.0,0.0,0.0,0.0,0.0,0.0,0.0,0.0,0.0,1.0
0.9992010593414308,0.3107856214046478,0.16324900090694427,0.0,0.02210386097431183,0.05086551234126091,0.08575233072042465,0.14620505273342133,0.16697736084461212,0.1802929490804672,0.1749667078256607,0.18082556128501892,0.20026631653308868,0.19201065599918363,0.19840213656425476,0.19653795659542084,0.20399467647075653,0.2101198434829712,0.21571238338947296,0.205592542886734,0.21731024980545044,0.23142476379871368,0.24154460430145264,0.2218375504016876,0.24047936499118805,0.2428761720657349,0.21624501049518585,0.2218375504016876,0.20266310870647433,0.20186418294906616,0.19014647603034973,0.16351531445980072,0.17576564848423004,0.19467376172542572,0.194141149520874,0.18215712904930112,0.1784287542104721,0.2085219770669937,0.21517975628376007,0.19014647603034973,0.19600532948970792,0.19600532948970792,0.22450067102909088,0.1962716430425644,0.22370173037052152,0.2609853446483612,0.2633821666240692,0.2668442130088806,0.2796271741390228,0.3006657660007477,0.2881491482257843,0.29880160093307495,0.3107856214046478,0.2798934876918793,0.2937416732311249,0.24154460430145264,0.22769640386104584,0.20186418294906616,0.1928095817565918,0.19254326820373535,0.21544606983661652,0.17762982845306396,0.18748335540294647,0.16617843508720395,0.16138482093811035,0.18854859471321103,0.17816245555877683,0.1693741679191589,0.20452730357646945,0.20985352993011472,0.34727030992507935,1.0,0.9888148903846741,0.26311585307121277,0.08042609691619873,0.026364846155047417,0.05299600586295128,0.08415446430444717,0.10226365178823472,0.1725699007511139,0.18055924773216248,0.1709720343351364,0.19307589530944824,0.20612516999244687,0.17709720134735107,0.0,0.0,0.0,0.0,0.0,0.0,0.0,0.0,0.0,0.0,0.0,0.0,0.0,0.0,0.0,0.0,0.0,0.0,0.0,0.0,0.0,0.0,0.0,0.0,0.0,0.0,0.0,0.0,0.0,0.0,0.0,0.0,0.0,0.0,0.0,0.0,0.0,0.0,0.0,0.0,0.0,0.0,0.0,0.0,0.0,0.0,0.0,0.0,0.0,0.0,0.0,0.0,0.0,0.0,0.0,0.0,0.0,0.0,0.0,0.0,0.0,0.0,0.0,0.0,0.0,0.0,0.0,0.0,0.0,0.0,0.0,0.0,0.0,0.0,0.0,0.0,0.0,0.0,0.0,0.0,0.0,0.0,0.0,0.0,0.0,0.0,0.0,0.0,0.0,0.0,0.0,0.0,0.0,0.0,0.0,0.0,0.0,0.0,0.0,0.0,0.0,0.0,1.0
0.9112840294837952,1.0,0.4758754968643189,0.1513618677854538,0.05097276344895363,0.06653696298599243,0.07821011543273926,0.10544747114181519,0.11167315393686295,0.11011673510074615,0.12178988009691238,0.11595330387353896,0.11634241044521332,0.12568093836307523,0.13035018742084503,0.12217898666858672,0.13579766452312467,0.13735409080982208,0.14280155301094055,0.1533073931932449,0.16498054563999176,0.17392995953559875,0.1898832619190216,0.20194552838802335,0.21322956681251523,0.24513618648052216,0.2610895037651062,0.29338520765304565,0.30972763895988464,0.33035019040107727,0.34085604548454285,0.3560311198234558,0.3536964952945709,0.3560311198234558,0.33151751756668085,0.287937730550766,0.26225680112838745,0.2128404676914215,0.18287937343120575,0.14669260382652283,0.12957198917865753,0.12568093836307523,0.11400777846574783,0.10505836457014084,0.1097276285290718,0.10428015887737274,0.09961089491844176,0.09883268177509309,0.0941634252667427,0.09105058014392853,0.0949416309595108,0.09455253183841704,0.09805447608232498,0.09844358265399933,0.1105058342218399,0.10466925799846648,0.1112840473651886,0.1112840473651886,0.11167315393686295,0.11167315393686295,0.11089494079351424,0.11517509818077087,0.1202334612607956,0.10583657771348952,0.1023346334695816,0.1007782071828842,0.0867704302072525,0.0949416309595108,0.09299610555171967,0.09766536951065063,0.135019451379776,0.1482490301132202,0.16147859394550323,0.1424124538898468,0.15369649231433868,0.1424124538898468,0.15097276866436005,0.12996108829975128,0.1023346334695816,0.093385212123394,0.06692606955766678,0.05097276344895363,0.045136187225580215,0.043579768389463425,0.0400778204202652,0.03463035076856613,0.03852140158414841,0.030350195243954655,0.02996108867228031,0.029182879254221916,0.0392996110022068,0.040466926991939545,0.08793774247169495,0.2789883315563202,0.4466926157474518,0.792607009410858,0.9680933952331542,0.5143969058990479,0.14941634237766263,0.028015565127134323,0.0,0.015175097621977328,0.04163424298167229,0.05097276344895363,0.046692606061697006,0.05369649827480316,0.0556420236825943,0.06498054414987564,0.056031130254268646,0.05719844251871109,0.0630350187420845,0.07003890722990036,0.06731517612934113,0.07470817118883133,0.0,0.0,0.0,0.0,0.0,0.0,0.0,0.0,0.0,0.0,0.0,0.0,0.0,0.0,0.0,0.0,0.0,0.0,0.0,0.0,0.0,0.0,0.0,0.0,0.0,0.0,0.0,0.0,0.0,0.0,0.0,0.0,0.0,0.0,0.0,0.0,0.0,0.0,0.0,0.0,0.0,0.0,0.0,0.0,0.0,0.0,0.0,0.0,0.0,0.0,0.0,0.0,0.0,0.0,0.0,0.0,0.0,0.0,0.0,0.0,0.0,0.0,0.0,0.0,0.0,0.0,0.0,0.0,0.0,0.0,0.0,0.0,0.0,1.0
1.0,0.9001793265342712,0.8182904720306396,0.6969515681266785,0.46204423904418945,0.2815301716327667,0.2056186497211456,0.1631799191236496,0.2761506140232086,0.30364614725112915,0.32396891713142395,0.2946802079677582,0.3000597655773163,0.30245068669319153,0.29348474740982056,0.3102211654186249,0.29288703203201294,0.2910938560962677,0.28272563219070435,0.2904961109161377,0.3018529713153839,0.29946205019950867,0.2851165533065796,0.3173938989639282,0.2809324562549591,0.2815301716327667,0.29826658964157104,0.2713688015937805,0.29408249258995056,0.2761506140232086,0.25283920764923096,0.235505074262619,0.2247459590435028,0.19306634366512296,0.17274357378482819,0.14584578573703763,0.1524208039045334,0.14106395840644836,0.14046622812747955,0.14405259490013123,0.1320980340242386,0.14405259490013123,0.14704124629497528,0.1679617464542389,0.18111176788806915,0.2253436893224716,0.22713688015937805,0.2552301287651062,0.26240286231040955,0.2761506140232086,0.2462641894817352,0.25224149227142334,0.2552301287651062,0.2510460317134857,0.2414823621511459,0.23311416804790497,0.2414823621511459,0.25881651043891907,0.2552301287651062,0.23789599537849423,0.2241482436656952,0.23610280454158783,0.2301255166530609,0.23311416804790497,0.21876868605613708,0.2109982073307037,0.2109982073307037,0.2277346104383469,0.2086072862148285,0.20263001322746277,0.2109982073307037,0.2098027467727661,0.21219366788864136,0.2151823043823242,0.21757322549819944,0.22355051338672635,0.24686191976070404,0.2480573803186417,0.27913928031921387,0.29826658964157104,0.2803347408771515,0.2851165533065796,0.315600723028183,0.2964734137058258,0.29228928685188293,0.28332337737083435,0.27854153513908386,0.2707710564136505,0.20203228294849396,0.2008368223905563,0.20143455266952512,0.20023909211158752,0.20263001322746277,0.2145845741033554,0.20621638000011444,0.21219366788864136,0.2462641894817352,0.34967124462127686,0.582785427570343,0.7065152525901794,0.7794381380081176,0.8655110597610474,0.7340107560157776,0.7083083987236023,0.5409443974494934,0.3048416078090668,0.12851165235042572,0.0460251048207283,0.0,0.1434548646211624,0.2145845741033554,0.21040047705173492,0.204423189163208,0.18649132549762723,0.21219366788864136,0.22056186199188232,0.21219366788864136,0.2008368223905563,0.2038254588842392,0.19665272533893585,0.20263001322746277,0.19545726478099823,0.0,0.0,0.0,0.0,0.0,0.0,0.0,0.0,0.0,0.0,0.0,0.0,0.0,0.0,0.0,0.0,0.0,0.0,0.0,0.0,0.0,0.0,0.0,0.0,0.0,0.0,0.0,0.0,0.0,0.0,0.0,0.0,0.0,0.0,0.0,0.0,0.0,0.0,0.0,0.0,0.0,0.0,0.0,0.0,0.0,0.0,0.0,0.0,0.0,0.0,0.0,0.0,0.0,0.0,0.0,0.0,0.0,0.0,0.0,0.0,0.0,0.0,0.0,0.0,0.0,1.0
0.982284665107727,0.6744043827056885,0.19364690780639648,0.0,0.05192425101995468,0.09651801735162735,0.18326206505298617,0.212583988904953,0.20219914615154264,0.20769700407981873,0.21808186173439023,0.19914478063583377,0.23946243524551392,0.23152107000350952,0.23029932379722595,0.2559560239315033,0.26206475496292114,0.2797800898551941,0.2871105670928955,0.30116066336631775,0.34086742997169495,0.34514355659484863,0.38240683078765875,0.4294441044330597,0.45204642415046686,0.480757474899292,0.4966402053833008,0.5204642415046692,0.5351252555847168,0.5656688809394836,0.5729994177818298,0.5125229358673096,0.4886988401412964,0.4300549924373626,0.36469149589538574,0.3225412368774414,0.2669517397880554,0.236408069729805,0.21075136959552765,0.23335368931293488,0.212583988904953,0.20708613097667697,0.204031765460968,0.21136224269866943,0.19975565373897552,0.1967012882232666,0.2119731158018112,0.2150274962186813,0.22357971966266632,0.2278558313846588,0.2309101969003677,0.2229688465595245,0.20769700407981873,0.20952962338924408,0.20952962338924408,0.21136224269866943,0.21441662311553955,0.21808186173439023,0.2046426385641098,0.18753817677497864,0.212583988904953,0.19120341539382937,0.22174710035324097,0.21380573511123657,0.20219914615154264,0.20708613097667697,0.20952962338924408,0.19181428849697113,0.19120341539382937,0.1814294457435608,0.18692730367183685,0.18998166918754575,0.19425779581069944,0.19486866891384125,0.20952962338924408,0.2529016435146332,0.2608430087566376,0.29383018612861633,0.29688453674316406,0.3671349883079529,0.36102625727653503,0.2883323132991791,0.2913866937160492,0.2199144810438156,0.1569945067167282,0.17837508022785187,0.18387293815612793,0.14355528354644775,0.1496640145778656,0.15271838009357452,0.15821625292301175,0.1441661566495895,0.15638363361358643,0.13989004492759705,0.2663408815860748,0.42761147022247314,0.45448991656303406,0.6249236464500427,1.0,0.5852168798446655,0.20708613097667697,0.0549786202609539,0.06353084743022919,0.08491142094135284,0.1453879028558731,0.22174710035324097,0.20647525787353516,0.2168601155281067,0.18998166918754575,0.21563836932182312,0.21563836932182312,0.2131948620080948,0.23152107000350952,0.23701894283294675,0.2559560239315033,0.2645082473754883,0.26817348599433893,0.0,0.0,0.0,0.0,0.0,0.0,0.0,0.0,0.0,0.0,0.0,0.0,0.0,0.0,0.0,0.0,0.0,0.0,0.0,0.0,0.0,0.0,0.0,0.0,0.0,0.0,0.0,0.0,0.0,0.0,0.0,0.0,0.0,0.0,0.0,0.0,0.0,0.0,0.0,0.0,0.0,0.0,0.0,0.0,0.0,0.0,0.0,0.0,0.0,0.0,0.0,0.0,0.0,0.0,0.0,0.0,0.0,0.0,0.0,0.0,0.0,0.0,0.0,0.0,0.0,0.0,0.0,0.0,0.0,0.0,1.0
1.0,0.7963340282440186,0.5947046875953674,0.5397148728370667,0.4898166954517365,0.43177190423011774,0.48778003454208374,0.4826883971691131,0.4979633390903473,0.4867617189884186,0.490835040807724,0.5071282982826233,0.4816700518131256,0.5091649889945984,0.5010183453559875,0.48574337363243103,0.505091667175293,0.5152749419212341,0.5173116326332092,0.5885946750640869,0.48574337363243103,0.4949083626270294,0.4867617189884186,0.523421585559845,0.5030549764633179,0.45621180534362793,0.4867617189884186,0.42260691523551935,0.4378818869590759,0.3971486687660218,0.31670060753822327,0.2637474536895752,0.2423625290393829,0.3319755494594574,0.24847251176834104,0.24032586812973025,0.2566191554069519,0.3177189528942108,0.41038697957992554,0.39205703139305115,0.1904277056455612,0.5448065400123596,0.90631365776062,0.2993890047073364,0.3340122103691101,0.24134419858455655,0.3798370659351349,0.47148674726486206,0.31059062480926514,0.2637474536895752,0.3706721067428589,0.6038696765899658,0.30753564834594727,0.2993890047073364,0.3431771993637085,0.2769857347011566,0.5254582762718201,0.2841140627861023,0.3788187503814698,0.41955193877220154,0.44704684615135193,0.5254582762718201,0.3411405384540558,0.3655804395675659,0.5091649889945984,0.4653767943382263,0.47148674726486206,0.3808554112911224,0.3778004050254822,0.48778003454208374,0.5173116326332092,0.5936863422393799,0.6171079277992249,0.490835040807724,0.385947048664093,0.30346232652664185,0.3289205729961395,0.25356414914131165,0.28309571743011475,0.2902240455150604,0.2423625290393829,0.2983706593513489,0.25152748823165894,0.2698574364185333,0.2637474536895752,0.2637474536895752,0.2749490737915039,0.28513237833976746,0.27800408005714417,0.2688390910625458,0.181262731552124,0.07841140776872635,0.0,0.23217922449111936,0.6099796295166016,0.8085539937019349,0.6252545714378357,0.8248472213745117,0.9694501161575316,0.6924643516540527,0.4887983798980713,0.47657841444015503,0.40529531240463257,0.371690422296524,0.42158859968185425,0.40631365776062006,0.4745417535305023,0.45112016797065735,0.45621180534362793,0.45926681160926813,0.4175152778625488,0.4837067127227783,0.46843177080154413,0.45926681160926813,0.44908350706100464,0.0,0.0,0.0,0.0,0.0,0.0,0.0,0.0,0.0,0.0,0.0,0.0,0.0,0.0,0.0,0.0,0.0,0.0,0.0,0.0,0.0,0.0,0.0,0.0,0.0,0.0,0.0,0.0,0.0,0.0,0.0,0.0,0.0,0.0,0.0,0.0,0.0,0.0,0.0,0.0,0.0,0.0,0.0,0.0,0.0,0.0,0.0,0.0,0.0,0.0,0.0,0.0,0.0,0.0,0.0,0.0,0.0,0.0,0.0,0.0,0.0,0.0,0.0,0.0,0.0,0.0,0.0,0.0,0.0,0.0,0.0,0.0,1.0
0.9489583373069764,0.46562498807907104,0.22343750298023224,0.0,0.09114583581686021,0.15312500298023224,0.19322916865348816,0.21041665971279144,0.1953125,0.22187499701976776,0.22291666269302368,0.2239583283662796,0.23489584028720856,0.23489584028720856,0.22604165971279144,0.234375,0.23645833134651184,0.24791666865348816,0.24166665971279144,0.23541666567325592,0.24895833432674408,0.25572916865348816,0.2671875059604645,0.2645833194255829,0.28177082538604736,0.29479166865348816,0.2979166805744171,0.3083333373069763,0.3296875059604645,0.33802083134651184,0.34427082538604736,0.35624998807907104,0.36666667461395264,0.36250001192092896,0.3697916567325592,0.3671875,0.36510416865348816,0.35729166865348816,0.34843748807907104,0.3140625059604645,0.31562501192092896,0.30156248807907104,0.29218751192092896,0.28125,0.2708333432674408,0.26249998807907104,0.26875001192092896,0.26249998807907104,0.24687500298023224,0.26093751192092896,0.2630208432674408,0.2552083432674408,0.25572916865348816,0.2473958283662796,0.26770833134651184,0.25989583134651184,0.2708333432674408,0.2718749940395355,0.2640624940395355,0.2640624940395355,0.27291667461395264,0.2692708373069763,0.27291667461395264,0.26875001192092896,0.26875001192092896,0.2630208432674408,0.26614582538604736,0.26614582538604736,0.2671875059604645,0.26510417461395264,0.26093751192092896,0.2708333432674408,0.26354166865348816,0.2682291567325592,0.2682291567325592,0.2760416567325592,0.2744791805744171,0.26614582538604736,0.2848958373069763,0.27812498807907104,0.26614582538604736,0.2671875059604645,0.27031248807907104,0.2630208432674408,0.2645833194255829,0.2671875059604645,0.2723958194255829,0.2718749940395355,0.2734375,0.265625,0.2708333432674408,0.2671875059604645,0.27656251192092896,0.2682291567325592,0.2750000059604645,0.2630208432674408,0.26354166865348816,0.27656251192092896,0.2718749940395355,0.2692708373069763,0.2901041805744171,0.29895833134651184,0.31041666865348816,0.3031249940395355,0.30000001192092896,0.3125,0.3218750059604645,0.3291666805744171,0.33541667461395264,0.3385416567325592,0.3244791626930237,0.3333333432674408,0.3369791805744171,0.30677083134651184,0.28593748807907104,0.2734375,0.27031248807907104,0.2776041626930237,0.2760416567325592,0.2708333432674408,0.27656251192092896,0.2666666805744171,0.2697916626930237,0.2708333432674408,0.27916666865348816,0.24635416269302368,0.18072916567325592,0.2880208194255829,0.6390625238418579,1.0,0.5286458134651184,0.30000001192092896,0.07135416567325592,0.15781250596046448,0.2369791716337204,0.2640624940395355,0.28593748807907104,0.2906250059604645,0.2890625,0.29479166865348816,0.3020833432674408,0.30781251192092896,0.2984375059604645,0.30781251192092896,0.3046875,0.31041666865348816,0.31458333134651184,0.3270833194255829,0.3135416805744171,0.32343751192092896,0.33541667461395264,0.3317708373069763,0.32864582538604736,0.34687501192092896,0.3578124940395355,0.36927083134651184,0.38333332538604736,0.40312498807907104,0.40052083134651184,0.0,0.0,0.0,0.0,0.0,0.0,0.0,0.0,0.0,0.0,0.0,0.0,0.0,0.0,0.0,0.0,0.0,0.0,0.0,0.0,0.0,0.0,0.0,0.0,0.0,0.0,0.0,0.0,1.0
0.9657422304153441,0.5785753130912781,0.4002175033092498,0.4127243161201477,0.36813485622406006,0.2762370705604553,0.253398597240448,0.21479064226150513,0.29309406876564026,0.24687330424785617,0.2109842300415039,0.24632953107357025,0.25013595819473267,0.25611746311187744,0.2854812443256378,0.2637302875518799,0.253398597240448,0.2653616070747375,0.2202283889055252,0.27079933881759644,0.2185970693826675,0.25502991676330566,0.2495921701192856,0.2626427412033081,0.28439369797706604,0.2436106652021408,0.27460575103759766,0.2637302875518799,0.28439369797706604,0.27079933881759644,0.19847743213176727,0.268080472946167,0.19902120530605316,0.2066340446472168,0.25285482406616205,0.14681892096996307,0.18977704644203183,0.21261554956436157,0.2234910279512405,0.2947253882884979,0.23273518681526184,0.258292555809021,0.2109842300415039,0.22566612064838407,0.27460575103759766,0.21424686908721924,0.2305600941181183,0.2577487826347351,0.2593801021575928,0.2860250174999237,0.24197933077812192,0.25122350454330444,0.2822186052799225,0.20717781782150269,0.25122350454330444,0.25013595819473267,0.2620989680290222,0.22620989382267,0.24687330424785617,0.2773246467113495,0.19575856626033783,0.2523110508918762,0.22675366699695587,0.27406197786331177,0.2523110508918762,0.2251223474740982,0.28765633702278137,0.2495921701192856,0.2865687906742096,0.2887438833713531,0.22077216207981107,0.24089178442955017,0.26971179246902466,0.23545405268669128,0.24687330424785617,0.2653616070747375,0.24687330424785617,0.2436106652021408,0.2626427412033081,0.24632953107357025,0.22566612064838407,0.26101142168045044,0.27297443151474,0.2593801021575928,0.2664491534233093,0.28493747115135193,0.351821631193161,0.3822729885578155,0.4632952809333802,0.416530728340149,0.45731374621391296,0.4518760144710541,0.36160957813262934,0.332245796918869,0.29744425415992737,0.23110386729240415,0.2860250174999237,0.25122350454330444,0.24904839694499967,0.263186514377594,0.20391516387462616,0.2316476404666901,0.15606307983398435,0.0,0.24796085059642792,0.6835236549377441,1.0,0.5883632302284241,0.4752582907676697,0.42577487230300903,0.37520390748977667,0.3431212604045868,0.26590538024902344,0.26155519485473633,0.27949973940849304,0.24034801125526428,0.2854812443256378,0.28330615162849426,0.2865687906742096,0.2653616070747375,0.28820011019706726,0.30723220109939575,0.311038613319397,0.29255029559135437,0.31158238649368286,0.26590538024902344,0.0,0.0,0.0,0.0,0.0,0.0,0.0,0.0,0.0,0.0,0.0,0.0,0.0,0.0,0.0,0.0,0.0,0.0,0.0,0.0,0.0,0.0,0.0,0.0,0.0,0.0,0.0,0.0,0.0,0.0,0.0,0.0,0.0,0.0,0.0,0.0,0.0,0.0,0.0,0.0,0.0,0.0,0.0,0.0,0.0,0.0,0.0,0.0,0.0,0.0,0.0,0.0,0.0,0.0,0.0,0.0,0.0,0.0,0.0,0.0,0.0,1.0
1.0,0.6666666865348816,0.17073170840740204,0.0,0.1222899705171585,0.18292683362960815,0.27540650963783264,0.35873982310295105,0.4247967600822449,0.4413956701755523,0.45088076591491694,0.45223575830459595,0.457655817270279,0.4502032399177551,0.45189702510833746,0.4539295434951782,0.45867207646369934,0.45494580268859863,0.457655817270279,0.4640921354293823,0.4739159941673278,0.48848238587379456,0.5010162591934204,0.5074525475502014,0.5176151990890503,0.5342140793800354,0.5413278937339783,0.5481029748916626,0.5548780560493469,0.5531842708587646,0.5409891605377197,0.5345528721809387,0.517276406288147,0.5162601470947266,0.5023712515830994,0.5105013847351074,0.5152438879013062,0.5115176439285278,0.5091463327407837,0.5077913403511047,0.5044037699699402,0.5091463327407837,0.5057588219642639,0.5016937851905823,0.5020325183868408,0.506436288356781,0.5084688067436218,0.5260840058326721,0.5484417080879211,0.5565718412399292,0.5643631219863892,0.5609756112098694,0.5308265686035156,0.5098238587379456,0.48373982310295105,0.5128726363182068,0.5128726363182068,0.5027100443840027,0.5091463327407837,0.5077913403511047,0.5115176439285278,0.5125339031219482,0.5132113695144653,0.5118563771247864,0.5094850659370422,0.5182926654815674,0.5386179089546204,0.6697154641151428,0.8008130192756653,0.7913278937339783,0.8472222089767456,0.9048103094100952,0.5558943152427673,0.09247967600822447,0.09383469074964525,0.19275067746639252,0.21815718710422516,0.36856368184089666,0.4247967600822449,0.47865852713584894,0.49254742264747614,0.49661245942115784,0.4969512224197387,0.4989837408065796,0.5037263035774231,0.4989837408065796,0.0,0.0,0.0,0.0,0.0,0.0,0.0,0.0,0.0,0.0,0.0,0.0,0.0,0.0,0.0,0.0,0.0,0.0,0.0,0.0,0.0,0.0,0.0,0.0,0.0,0.0,0.0,0.0,0.0,0.0,0.0,0.0,0.0,0.0,0.0,0.0,0.0,0.0,0.0,0.0,0.0,0.0,0.0,0.0,0.0,0.0,0.0,0.0,0.0,0.0,0.0,0.0,0.0,0.0,0.0,0.0,0.0,0.0,0.0,0.0,0.0,0.0,0.0,0.0,0.0,0.0,0.0,0.0,0.0,0.0,0.0,0.0,0.0,0.0,0.0,0.0,0.0,0.0,0.0,0.0,0.0,0.0,0.0,0.0,0.0,0.0,0.0,0.0,0.0,0.0,0.0,0.0,0.0,0.0,0.0,0.0,0.0,0.0,0.0,0.0,0.0,1.0
0.9778905510902405,1.0,0.9807901382446288,0.6788691282272339,0.3620877265930176,0.11888365447521208,0.010873504914343355,0.08155128359794615,0.2000724971294403,0.3559260666370392,0.4762594997882843,0.5929684638977051,0.6832185387611389,0.7187386751174927,0.7223631739616394,0.7187386751174927,0.7227256298065186,0.7350489497184753,0.7335991263389587,0.7354114055633546,0.7437477111816406,0.7495469450950623,0.7448350787162781,0.7437477111816406,0.7513591647148132,0.7629575729370117,0.7629575729370117,0.7803552150726318,0.7861543893814087,0.7959405779838562,0.8122507929801941,0.8234867453575134,0.8300108909606932,0.8426966071128845,0.8474084734916686,0.8528452515602112,0.8463211059570312,0.8379848003387451,0.8151504397392274,0.7941282987594604,0.768031895160675,0.7520840764045715,0.7502718567848204,0.7314244508743286,0.7339615821838379,0.7354114055633546,0.7056904435157776,0.7165639996528625,0.7078651785850525,0.7075027227401733,0.7133018970489502,0.7056904435157776,0.7252627611160278,0.7143892645835876,0.7136643528938293,0.7191011309623718,0.7162015438079834,0.7180137634277344,0.7191011309623718,0.7252627611160278,0.723812997341156,0.7404856681823732,0.7375860810279846,0.7419354915618896,0.7459224462509155,0.7473722100257874,0.7441101670265199,0.7267125844955444,0.7140268087387085,0.6998912692070007,0.6922798156738281,0.6988039016723633,0.7216382622718811,0.7104023098945618,0.7187386751174927,0.7223631739616394,0.721275806427002,0.7136643528938293,0.7118521332740784,0.7241754531860352,0.7252627611160278,0.7172888517379761,0.7133018970489502,0.7107647657394409,0.7350489497184753,0.7799927592277527,0.8912649750709533,0.9909387230873109,0.9974628686904908,0.9601304531097413,0.6060166954994202,0.31315693259239197,0.09677419066429138,0.0,0.10402319580316544,0.22435665130615232,0.35628852248191833,0.48858281970024114,0.6081913709640503,0.691917359828949,0.7042406797409058,0.7071402668952942,0.7227256298065186,0.7162015438079834,0.0,0.0,0.0,0.0,0.0,0.0,0.0,0.0,0.0,0.0,0.0,0.0,0.0,0.0,0.0,0.0,0.0,0.0,0.0,0.0,0.0,0.0,0.0,0.0,0.0,0.0,0.0,0.0,0.0,0.0,0.0,0.0,0.0,0.0,0.0,0.0,0.0,0.0,0.0,0.0,0.0,0.0,0.0,0.0,0.0,0.0,0.0,0.0,0.0,0.0,0.0,0.0,0.0,0.0,0.0,0.0,0.0,0.0,0.0,0.0,0.0,0.0,0.0,0.0,0.0,0.0,0.0,0.0,0.0,0.0,0.0,0.0,0.0,0.0,0.0,0.0,0.0,0.0,0.0,0.0,0.0,0.0,0.0,1.0
0.9726526737213135,0.3828623592853546,0.04375569894909859,0.17866909503936768,0.147675484418869,0.15496809780597687,0.19781221449375153,0.11303555220365524,0.15496809780597687,0.1531449407339096,0.12215132266283037,0.15496809780597687,0.1531449407339096,0.17866909503936768,0.135824978351593,0.1586143970489502,0.17228806018829343,0.217866912484169,0.17411121726036072,0.229717418551445,0.20328167080879211,0.1768459379673004,0.19325433671474457,0.20145852863788605,0.23974475264549255,0.20237010717391968,0.18505012989044187,0.27529627084732056,0.25432997941970825,0.22242479026317596,0.206016406416893,0.1996353715658188,0.20510482788085935,0.12579762935638428,0.15132178366184235,0.08386508375406265,0.06563354283571243,0.08659981936216353,0.10483136028051376,0.08751139789819717,0.1057429388165474,0.1175934374332428,0.15132178366184235,0.1002734750509262,0.1394712924957275,0.13673655688762665,0.18505012989044187,0.1804922521114349,0.15952597558498383,0.15405651926994324,0.1996353715658188,0.16590702533721924,0.18140383064746857,0.18596170842647552,0.18596170842647552,0.15679125487804413,0.1877848654985428,0.19598905742168424,0.15679125487804413,0.15041020512580872,0.1704649031162262,0.15587967634201047,0.11303555220365524,0.1394712924957275,0.12306290119886398,0.1531449407339096,0.1349133998155594,0.14311759173870087,0.11941658705472946,0.11394713073968887,0.1121239736676216,0.1349133998155594,0.19325433671474457,0.217866912484169,0.27529627084732056,0.23154056072235107,0.23427529633045197,0.23883317410945892,0.32816773653030396,0.2616226077079773,0.19598905742168424,0.17866909503936768,0.135824978351593,0.12306290119886398,0.08568824082612991,0.06563354283571243,0.051959890872240067,0.09024612605571747,0.014585232362151144,0.04557885229587555,0.0528714694082737,0.04466727375984192,0.0647219717502594,0.07383774220943451,0.123974472284317,0.288058340549469,0.4111212491989136,0.8058341145515442,1.0,0.7028259038925171,0.14949862658977509,0.0,0.20145852863788605,0.1349133998155594,0.08842296898365021,0.14220601320266724,0.08113035559654236,0.08751139789819717,0.14220601320266724,0.16226071119308472,0.11030082404613493,0.10391978174448012,0.16226071119308472,0.14585232734680176,0.1768459379673004,0.17502279579639435,0.14220601320266724,0.1686417460441589,0.0,0.0,0.0,0.0,0.0,0.0,0.0,0.0,0.0,0.0,0.0,0.0,0.0,0.0,0.0,0.0,0.0,0.0,0.0,0.0,0.0,0.0,0.0,0.0,0.0,0.0,0.0,0.0,0.0,0.0,0.0,0.0,0.0,0.0,0.0,0.0,0.0,0.0,0.0,0.0,0.0,0.0,0.0,0.0,0.0,0.0,0.0,0.0,0.0,0.0,0.0,0.0,0.0,0.0,0.0,0.0,0.0,0.0,0.0,0.0,0.0,0.0,0.0,0.0,0.0,0.0,0.0,0.0,0.0,1.0
1.0,0.3747314214706421,0.06145251542329788,0.0,0.048130638897418976,0.09368285536766052,0.1134507954120636,0.11559948325157164,0.1538461595773697,0.1310700476169586,0.15298667550086975,0.15470562875270844,0.15599484741687775,0.17232488095760343,0.17576278746128082,0.1817791163921356,0.18693597614765167,0.20154705643653867,0.20068758726119995,0.2178770899772644,0.23936398327350616,0.24108293652534485,0.22733132541179657,0.27804040908813477,0.27847012877464294,0.28448647260665894,0.2922217547893524,0.2943704426288605,0.2973785996437073,0.2849161922931671,0.2819080352783203,0.2595616579055786,0.22174473106861112,0.2251826375722885,0.2088526040315628,0.18521702289581296,0.17576278746128082,0.1688869744539261,0.1538461595773697,0.1478298306465149,0.16587881743907928,0.15728405117988586,0.15728405117988586,0.1641598641872406,0.16501933336257935,0.18521702289581296,0.19424150884151456,0.18521702289581296,0.20842286944389343,0.19123335182666776,0.19424150884151456,0.19424150884151456,0.18306833505630493,0.18650622665882113,0.1701761931180954,0.17877094447612762,0.1701761931180954,0.17791147530078888,0.1714654117822647,0.1800601631402969,0.20541469752788544,0.24709926545619965,0.23936398327350616,0.24323162436485288,0.23420713841915128,0.26772668957710266,0.2505371868610382,0.21916630864143372,0.21615813672542572,0.1744735687971115,0.17662225663661957,0.14224323630332947,0.1267726719379425,0.14052428305149078,0.14267297089099884,0.12892135977745056,0.13364847004413605,0.1327890008687973,0.149119034409523,0.13536742329597473,0.15083798766136167,0.12763214111328125,0.23506660759449005,0.4224323034286499,0.6304254531860352,0.9596046209335328,0.8500214815139772,0.2715943157672882,0.0880962610244751,0.014611086808145046,0.06617963314056396,0.1327890008687973,0.14740008115768433,0.1628706455230713,0.16587881743907928,0.1744735687971115,0.1714654117822647,0.1684572398662567,0.18951439857482913,0.19209282100200653,0.20541469752788544,0.21014180779457092,0.21143102645874023,0.22260421514511108,0.0,0.0,0.0,0.0,0.0,0.0,0.0,0.0,0.0,0.0,0.0,0.0,0.0,0.0,0.0,0.0,0.0,0.0,0.0,0.0,0.0,0.0,0.0,0.0,0.0,0.0,0.0,0.0,0.0,0.0,0.0,0.0,0.0,0.0,0.0,0.0,0.0,0.0,0.0,0.0,0.0,0.0,0.0,0.0,0.0,0.0,0.0,0.0,0.0,0.0,0.0,0.0,0.0,0.0,0.0,0.0,0.0,0.0,0.0,0.0,0.0,0.0,0.0,0.0,0.0,0.0,0.0,0.0,0.0,0.0,0.0,0.0,0.0,0.0,0.0,0.0,0.0,0.0,0.0,0.0,0.0,0.0,0.0,1.0
1.0,0.41709053516387934,0.213631734251976,0.0,0.1607324481010437,0.27772125601768494,0.3448626697063446,0.41709053516387934,0.4221770167350769,0.4069176018238067,0.37741607427597046,0.4465920627117157,0.4699898362159729,0.4710071086883545,0.42929807305336,0.45879960060119634,0.4974567592144013,0.523906409740448,0.525941014289856,0.5503560304641724,0.513733446598053,0.5757883787155151,0.6073245406150818,0.6419125199317932,0.6683621406555176,0.6866734623908997,0.76093590259552,0.7884028553962708,0.848423182964325,0.8840284943580627,0.8616480231285094,0.9277721047401429,0.9084435105323792,0.8870803713798523,0.7721261382102966,0.6948118209838867,0.6236011981964111,0.571719229221344,0.5208545327186584,0.4496439397335053,0.43845370411872864,0.46490335464477534,0.468972533941269,0.48423194885253906,0.4120040833950042,0.41302135586738586,0.4577822983264923,0.421159714460373,0.46693795919418335,0.4181078374385834,0.43540182709693903,0.46490335464477534,0.46592065691947937,0.430315375328064,0.4120040833950042,0.4038657248020172,0.468972533941269,0.43845370411872864,0.39471006393432617,0.41302135586738586,0.43540182709693903,0.4628687798976898,0.5564598441123962,0.0,0.0,0.0,0.0,0.0,0.0,0.0,0.0,0.0,0.0,0.0,0.0,0.0,0.0,0.0,0.0,0.0,0.0,0.0,0.0,0.0,0.0,0.0,0.0,0.0,0.0,0.0,0.0,0.0,0.0,0.0,0.0,0.0,0.0,0.0,0.0,0.0,0.0,0.0,0.0,0.0,0.0,0.0,0.0,0.0,0.0,0.0,0.0,0.0,0.0,0.0,0.0,0.0,0.0,0.0,0.0,0.0,0.0,0.0,0.0,0.0,0.0,0.0,0.0,0.0,0.0,0.0,0.0,0.0,0.0,0.0,0.0,0.0,0.0,0.0,0.0,0.0,0.0,0.0,0.0,0.0,0.0,0.0,0.0,0.0,0.0,0.0,0.0,0.0,0.0,0.0,0.0,0.0,0.0,0.0,0.0,0.0,0.0,0.0,0.0,0.0,0.0,0.0,0.0,0.0,0.0,0.0,0.0,0.0,0.0,0.0,0.0,0.0,0.0,0.0,0.0,0.0,0.0,0.0,0.0,0.0,0.0,0.0,0.0,1.0
0.9542902708053589,0.517241358757019,0.19727346301078796,0.18444266915321353,0.3079390525817871,0.2590216398239136,0.20850040018558505,0.15477144718170166,0.16760224103927612,0.14915798604488373,0.17241379618644714,0.17241379618644714,0.1619887799024582,0.17642341554164886,0.1860465109348297,0.16840417683124542,0.2036888599395752,0.19326382875442505,0.2325581461191177,0.23897354304790497,0.23576584458351135,0.27826783061027527,0.27826783061027527,0.3215717673301697,0.3416198790073395,0.37850841879844666,0.4538893401622772,0.47955092787742615,0.5605453252792358,0.6230954527854919,0.6840416789054871,0.7850841879844666,0.8420208692550659,0.8901363015174866,0.8748997449874878,0.8139534592628478,0.7353648543357849,0.5677626132965088,0.4971932768821716,0.35525259375572205,0.2582197189331054,0.23015236854553223,0.1603849232196808,0.15316760540008545,0.13392141461372375,0.10425020009279252,0.13552525639533997,0.1026463508605957,0.11307137459516524,0.10665597766637802,0.09141940623521805,0.13311949372291565,0.10104250162839888,0.051323175430297845,0.07778669148683547,0.10585404932498932,0.13552525639533997,0.11467522382736206,0.1291098594665527,0.12109062075614928,0.10745789855718613,0.13873295485973358,0.10825982689857482,0.12590216100215912,0.12269446998834609,0.09943865239620207,0.12830793857574463,0.09943865239620207,0.11467522382736206,0.10906174778938292,0.08580593764781952,0.11226944625377656,0.08580593764781952,0.1034482792019844,0.09623095393180849,0.07377706468105316,0.11066559702157974,0.07377706468105316,0.09943865239620207,0.09141940623521805,0.07137129455804825,0.1034482792019844,0.07137129455804825,0.08901363611221313,0.08340016007423402,0.06335204839706421,0.09542903304100037,0.06896551698446274,0.08821170777082443,0.07939054071903229,0.06976744532585144,0.09141940623521805,0.07457899302244185,0.08660785853862761,0.09141940623521805,0.06415396928787231,0.10104250162839888,0.07858861237764359,0.08580593764781952,0.09061748534440994,0.10665597766637802,0.16279070079326627,0.15717722475528717,0.1659983992576599,0.21411387622356415,0.250200480222702,0.25421011447906494,0.166800320148468,0.1507618278264999,0.1050521284341812,0.10585404932498932,0.1026463508605957,0.028067361563444138,0.05052125081419945,0.04971932619810104,0.03127506002783775,0.05693664774298668,0.036888532340526574,0.03608660772442818,0.04731355234980583,0.03528468310832977,0.0617481954395771,0.0408981554210186,0.0,0.0978348031640053,0.2894947826862335,0.5244587063789368,0.8035284876823425,1.0,0.5100240707397461,0.14835605025291443,0.1884522885084152,0.3047313690185547,0.0,0.0,0.0,0.0,0.0,0.0,0.0,0.0,0.0,0.0,0.0,0.0,0.0,0.0,0.0,0.0,0.0,0.0,0.0,0.0,0.0,0.0,0.0,0.0,0.0,0.0,0.0,0.0,0.0,0.0,0.0,0.0,0.0,0.0,0.0,0.0,0.0,0.0,0.0,0.0,0.0,0.0,0.0,0.0,0.0,0.0,0.0,0.0,0.0,0.0,0.0,0.0,0.0,0.0,1.0
0.9772818088531494,0.8680749535560608,0.006775607820600271,0.02550817094743252,0.2714228630065918,0.4846552312374115,0.48505380749702454,0.47548824548721313,0.487445205450058,0.48903945088386536,0.4846552312374115,0.4902351498603821,0.5001992583274841,0.4942207932472229,0.49182942509651184,0.5017935633659363,0.4894380271434784,0.5081706047058105,0.5041849613189697,0.49182942509651184,0.5137504935264587,0.504583477973938,0.5145476460456848,0.5097648501396179,0.510163426399231,0.5129533410072327,0.5085691213607788,0.497807890176773,0.47708249092102045,0.4559585452079773,0.4440015852451325,0.41729772090911865,0.4109206795692444,0.39059385657310486,0.3694699108600616,0.3686727881431579,0.368274211883545,0.3766440749168396,0.387006789445877,0.4057393372058869,0.4340374767780304,0.44599440693855286,0.4734954237937927,0.4655241072177887,0.4866480529308319,0.4986050128936767,0.504583477973938,0.5025906562805176,0.49820646643638605,0.4998007118701934,0.5089676976203918,0.5053806304931641,0.5093662738800049,0.4842566847801208,0.4954164922237396,0.5069748759269714,0.5053806304931641,0.5189318656921387,0.5233160853385925,0.5548027157783508,0.5575926899909973,0.5787166357040405,0.5787166357040405,0.5300916433334351,0.5077720284461975,0.5312873721122742,0.5061777830123901,0.5344758629798889,0.5089676976203918,0.5089676976203918,0.4970107674598694,0.4846552312374115,0.48824232816696167,0.4579513669013977,0.4778796434402466,0.5065762996673584,0.4806695878505706,0.5117576718330383,0.5878835916519165,0.6803507208824158,0.813870072364807,1.0,0.6747708320617676,0.0,0.16859306395053864,0.43244320154190063,0.5157433152198792,0.5037863850593567,0.4926265478134155,0.5057792067527771,0.5177361369132996,0.5005978345870972,0.5141490697860718,0.5109605193138123,0.5257074236869812,0.5300916433334351,0.5117576718330383,0.5312873721122742,0.5057792067527771,0.5173375606536865,0.0,0.0,0.0,0.0,0.0,0.0,0.0,0.0,0.0,0.0,0.0,0.0,0.0,0.0,0.0,0.0,0.0,0.0,0.0,0.0,0.0,0.0,0.0,0.0,0.0,0.0,0.0,0.0,0.0,0.0,0.0,0.0,0.0,0.0,0.0,0.0,0.0,0.0,0.0,0.0,0.0,0.0,0.0,0.0,0.0,0.0,0.0,0.0,0.0,0.0,0.0,0.0,0.0,0.0,0.0,0.0,0.0,0.0,0.0,0.0,0.0,0.0,0.0,0.0,0.0,0.0,0.0,0.0,0.0,0.0,0.0,0.0,0.0,0.0,0.0,0.0,0.0,0.0,0.0,0.0,0.0,0.0,0.0,0.0,0.0,0.0,0.0,1.0
1.0,0.2929936349391937,0.0,0.2855626344680786,0.47239914536476135,0.5796178579330444,0.5647558569908142,0.5912951231002808,0.606157124042511,0.6666666865348816,0.5817409753799438,0.612526535987854,0.6252654194831848,0.5764331221580505,0.6199575662612915,0.6518046855926514,0.6199575662612915,0.6029723882675171,0.6443736553192139,0.6486199498176575,0.6252654194831848,0.662420392036438,0.6178343892097473,0.5934182405471802,0.6719745397567749,0.6178343892097473,0.6199575662612915,0.6772823929786682,0.6995753645896912,0.7377919554710389,0.7420381903648376,0.805732488632202,0.7834395170211792,0.8099787831306458,0.92144376039505,0.8726114630699159,0.8832271695137024,0.9203821420669557,0.8917197585105896,0.8736730217933655,0.8959660530090333,0.9065817594528198,0.8004246354103088,0.7473460435867308,0.725053071975708,0.6740976572036743,0.7006369233131409,0.6794055104255676,0.6358811259269714,0.7038216590881348,0.691082775592804,0.6135880947113037,0.6050955653190613,0.6305732727050781,0.5976645350456238,0.6496815085411072,0.6380042433738708,0.57855623960495,0.5955414175987244,0.5870488286018372,0.612526535987854,0.6571125388145447,0.6337579488754272,0.6496815085411072,0.6284500956535339,0.6178343892097473,0.6475583910942078,0.6072186827659607,0.6602972149848938,0.6602972149848938,0.6242038011550903,0.6454352736473083,0.6634819507598877,0.6380042433738708,0.6316348314285278,0.6475583910942078,0.6507431268692017,0.6454352736473083,0.6316348314285278,0.6178343892097473,0.6496815085411072,0.6518046855926514,0.6507431268692017,0.6932059526443481,0.6719745397567749,0.6730360984802246,0.6868365406990051,0.6507431268692017,0.6422505378723145,0.6072186827659607,0.7006369233131409,0.6231422424316406,0.6369426846504211,0.6422505378723145,0.6443736553192139,0.6443736553192139,0.6857749223709106,0.5955414175987244,0.634819507598877,0.6072186827659607,0.5690021514892578,0.6093418002128601,0.6157112717628479,0.6422505378723145,0.6496815085411072,0.618895947933197,0.6199575662612915,0.6252654194831848,0.6029723882675171,0.6454352736473083,0.6528662443161011,0.6528662443161011,0.6963906288146973,0.718683660030365,0.7462844848632812,0.7292993664741517,0.7430998086929321,0.0,0.0,0.0,0.0,0.0,0.0,0.0,0.0,0.0,0.0,0.0,0.0,0.0,0.0,0.0,0.0,0.0,0.0,0.0,0.0,0.0,0.0,0.0,0.0,0.0,0.0,0.0,0.0,0.0,0.0,0.0,0.0,0.0,0.0,0.0,0.0,0.0,0.0,0.0,0.0,0.0,0.0,0.0,0.0,0.0,0.0,0.0,0.0,0.0,0.0,0.0,0.0,0.0,0.0,0.0,0.0,0.0,0.0,0.0,0.0,0.0,0.0,0.0,0.0,0.0,0.0,0.0,0.0,0.0,0.0,1.0
1.0,0.8292682766914368,0.6763830780982971,0.2926829159259796,0.15229029953479767,0.13146936893463135,0.095181442797184,0.0862581804394722,0.07198096066713333,0.03390838950872421,0.06662701070308685,0.06127305328845978,0.086853064596653,0.095181442797184,0.08863771706819534,0.07257584482431412,0.08744794875383377,0.10053539276123045,0.12373587489128111,0.11005353927612305,0.12195122241973876,0.11957168579101562,0.13920284807682037,0.17013682425022125,0.1505056470632553,0.19690659642219543,0.2076145112514496,0.22546103596687317,0.251041054725647,0.23081499338150024,0.2320047616958618,0.20285543799400327,0.19155265390872955,0.17370612919330597,0.1421772688627243,0.08566329628229141,0.06127305328845978,0.052349790930747986,0.04640095308423042,0.027364663779735565,0.03628792241215706,0.04402141645550728,0.052349790930747986,0.06067816913127899,0.044616300612688065,0.07317072898149489,0.052349790930747986,0.06603212654590607,0.07019630819559097,0.060083284974098206,0.07138607650995255,0.049375370144844055,0.04997025430202484,0.04521118476986885,0.06722189486026764,0.07317072898149489,0.052944675087928765,0.05889351665973663,0.060083284974098206,0.09875074028968812,0.07198096066713333,0.07852468639612198,0.07971445471048355,0.0773349180817604,0.07138607650995255,0.08090422302484512,0.07792980223894118,0.09161213785409927,0.10707911849021912,0.08982748538255692,0.0648423582315445,0.07495538145303726,0.08923260122537613,0.06662701070308685,0.04521118476986885,0.06603212654590607,0.06960142403841019,0.12195122241973876,0.13801309466362,0.11838191747665404,0.14515168964862823,0.15169541537761688,0.16478286683559415,0.15348006784915924,0.18441404402256012,0.15288518369197843,0.13801309466362,0.10945865511894226,0.0517549067735672,0.035098154097795486,0.06186793744564056,0.0559190958738327,0.05651398003101349,0.07257584482431412,0.0,0.04878048598766327,0.30458059906959534,0.8786436915397645,0.9660916328430176,0.7834622263908385,0.4479476511478424,0.23616895079612732,0.18619869649410248,0.15407495200634003,0.12195122241973876,0.1284949481487274,0.1076740026473999,0.1160023808479309,0.1160023808479309,0.11838191747665404,0.13801309466362,0.129684716463089,0.15288518369197843,0.1546698361635208,0.15288518369197843,0.0,0.0,0.0,0.0,0.0,0.0,0.0,0.0,0.0,0.0,0.0,0.0,0.0,0.0,0.0,0.0,0.0,0.0,0.0,0.0,0.0,0.0,0.0,0.0,0.0,0.0,0.0,0.0,0.0,0.0,0.0,0.0,0.0,0.0,0.0,0.0,0.0,0.0,0.0,0.0,0.0,0.0,0.0,0.0,0.0,0.0,0.0,0.0,0.0,0.0,0.0,0.0,0.0,0.0,0.0,0.0,0.0,0.0,0.0,0.0,0.0,0.0,0.0,0.0,0.0,0.0,0.0,0.0,0.0,0.0,0.0,0.0,1.0
0.9275109171867372,0.7397379875183105,0.2462882101535797,0.0,0.28034934401512146,0.36593887209892273,0.4043668210506439,0.47423580288887024,0.46200874447822565,0.5082969665527344,0.4663755595684051,0.4689956307411194,0.48209607601165766,0.4611353576183319,0.5205240249633789,0.5013100504875183,0.5205240249633789,0.5266375541687012,0.4803493320941925,0.544978141784668,0.5013100504875183,0.5196506381034851,0.544104814529419,0.528384268283844,0.5694323182106018,0.5493449568748474,0.5580785870552063,0.5781659483909607,0.5764192342758179,0.6279475688934326,0.5772925615310669,0.6087336540222168,0.623580813407898,0.6165938973426819,0.6462882161140442,0.6270742416381836,0.624454140663147,0.6000000238418579,0.5772925615310669,0.5746724605560303,0.5310043692588806,0.5266375541687012,0.5406113266944885,0.5065501928329468,0.5248908400535583,0.5179039239883423,0.5039301514625549,0.5353711843490601,0.5126637816429138,0.5327510833740234,0.5301309823989868,0.5161572098731995,0.5353711843490601,0.5196506381034851,0.5659388899803162,0.5091702938079834,0.5144104957580566,0.5109170079231262,0.5144104957580566,0.5484716296195984,0.5301309823989868,0.5432314276695251,0.5240174531936646,0.4986899495124817,0.5467249155044556,0.5589519739151001,0.6183406114578247,0.6462882161140442,0.6270742416381836,0.6602619886398315,0.6655021905899048,0.6305676698684692,0.5851528644561768,0.5668122172355652,0.5589519739151001,0.527510941028595,0.5353711843490601,0.5126637816429138,0.491703063249588,0.5231441259384155,0.4986899495124817,0.5004366636276245,0.5135371088981628,0.47685590386390686,0.5152838230133057,0.4296943247318268,0.4314410388469696,0.45414847135543823,0.7720524072647095,1.0,0.8681222796440125,0.2820960581302643,0.05414847284555435,0.24104803800582883,0.4209606945514679,0.4462881982326507,0.495196521282196,0.504803478717804,0.4925764203071594,0.5379912853240967,0.49606987833976746,0.5196506381034851,0.5589519739151001,0.5248908400535583,0.5554584860801697,0.5222707390785217,0.0,0.0,0.0,0.0,0.0,0.0,0.0,0.0,0.0,0.0,0.0,0.0,0.0,0.0,0.0,0.0,0.0,0.0,0.0,0.0,0.0,0.0,0.0,0.0,0.0,0.0,0.0,0.0,0.0,0.0,0.0,0.0,0.0,0.0,0.0,0.0,0.0,0.0,0.0,0.0,0.0,0.0,0.0,0.0,0.0,0.0,0.0,0.0,0.0,0.0,0.0,0.0,0.0,0.0,0.0,0.0,0.0,0.0,0.0,0.0,0.0,0.0,0.0,0.0,0.0,0.0,0.0,0.0,0.0,0.0,0.0,0.0,0.0,0.0,0.0,0.0,0.0,0.0,0.0,0.0,0.0,1.0
1.0,0.8795233964920043,0.37334510684013367,0.2405119091272354,0.14121800661087036,0.12533098459243774,0.21094439923763275,0.19152691960334775,0.18623124063014984,0.204766109585762,0.18490733206272125,0.21932920813560483,0.20388349890708923,0.21226830780506137,0.22683142125606537,0.19991174340248108,0.22153574228286743,0.21359223127365112,0.1950573772192001,0.22859664261341095,0.19549867510795593,0.21888791024684903,0.1994704306125641,0.19549867510795593,0.22374227643013,0.17608119547367096,0.1884377747774124,0.15842895209789276,0.14298322796821594,0.12312445044517516,0.08693733811378479,0.06178287789225578,0.0432480126619339,0.026919681578874588,0.031332746148109436,0.0,0.04501323774456978,0.07149161398410797,0.09620476514101028,0.1306266486644745,0.14210061728954315,0.17740511894226074,0.18534862995147705,0.1972638964653015,0.2219770550727844,0.2056487202644348,0.21491615474224088,0.23300971090793607,0.224183589220047,0.23212710022926328,0.22815534472465515,0.23874668776988983,0.24977934360504153,0.2511032521724701,0.2603707015514374,0.23609885573387143,0.2502206563949585,0.2577228546142578,0.2586054801940918,0.2687555253505707,0.2400706112384796,0.25375109910964966,0.2603707015514374,0.2506619691848755,0.2586054801940918,0.23124448955059052,0.24669019877910617,0.24977934360504153,0.23830538988113403,0.2515445649623871,0.23433363437652588,0.24227714538574216,0.24669019877910617,0.2391880005598068,0.25330978631973267,0.22594881057739255,0.24669019877910617,0.2409532219171524,0.24227714538574216,0.24448366463184357,0.2400706112384796,0.2656663656234741,0.29964694380760193,0.31288614869117737,0.33230361342430115,0.30714917182922363,0.34245365858078,0.3596646189689636,0.3534863293170929,0.3640776574611664,0.3005295693874359,0.276699036359787,0.24315975606441495,0.22065313160419464,0.23124448955059052,0.20388349890708923,0.21800529956817624,0.21932920813560483,0.2074139416217804,0.22506619989871976,0.20035304129123688,0.15975287556648254,0.09841129928827284,0.14033539593219757,0.485436886548996,0.9276257753372192,0.9964695572853088,0.49691087007522583,0.276699036359787,0.17961165308952332,0.12797881662845612,0.19858781993389127,0.2074139416217804,0.21270962059497833,0.224183589220047,0.20432479679584503,0.21977052092552185,0.2228596657514572,0.22109444439411163,0.2316857874393463,0.21050308644771576,0.23036186397075653,0.23300971090793607,0.22903795540332791,0.2246248871088028,0.2074139416217804,0.22639010846614835,0.22506619989871976,0.21182700991630551,0.0,0.0,0.0,0.0,0.0,0.0,0.0,0.0,0.0,0.0,0.0,0.0,0.0,0.0,0.0,0.0,0.0,0.0,0.0,0.0,0.0,0.0,0.0,0.0,0.0,0.0,0.0,0.0,0.0,0.0,0.0,0.0,0.0,0.0,0.0,0.0,0.0,0.0,0.0,0.0,0.0,0.0,0.0,0.0,0.0,0.0,0.0,0.0,0.0,0.0,0.0,0.0,0.0,0.0,0.0,0.0,0.0,0.0,1.0
1.0,0.7572398781776429,0.516624927520752,0.3818376958370209,0.24883803725242615,0.17983554303646088,0.14444047212600708,0.1315695345401764,0.12048623710870741,0.10761529952287673,0.10797283053398132,0.0986771509051323,0.10189488530158997,0.10046478360891342,0.11226313561201096,0.11476582288742064,0.11905612796545029,0.12263139337301254,0.12763676047325134,0.13728995621204376,0.1487307846546173,0.15016089379787445,0.16195924580097198,0.16553449630737305,0.1866285353899002,0.20557740330696103,0.2248838096857071,0.24883803725242615,0.2695745527744293,0.30389702320098877,0.32928135991096497,0.34429746866226196,0.3661065399646759,0.37647479772567755,0.388273149728775,0.38112261891365046,0.3528780937194824,0.33714693784713745,0.29138362407684326,0.26170897483825684,0.22130854427814484,0.18376831710338593,0.1644619256258011,0.14908830821514127,0.12978190183639526,0.11977118253707884,0.1061851978302002,0.09939220547676086,0.0961744710803032,0.09009653329849245,0.0854486972093582,0.08723632246255875,0.09295673668384552,0.09402931481599808,0.09188415855169296,0.09903468191623688,0.0833035409450531,0.09939220547676086,0.09295673668384552,0.10475509613752364,0.09438684582710266,0.07508044689893723,0.08652127534151077,0.08437611907720566,0.08008580654859543,0.07472291588783264,0.06292456388473511,0.07186271250247955,0.06936002522706985,0.0632820874452591,0.05398641526699066,0.04218805953860283,0.052198782563209534,0.05076868087053299,0.050411153584718704,0.043260637670755386,0.03897032514214515,0.05005363002419472,0.041830532252788544,0.0353950671851635,0.0378977470099926,0.03324991092085838,0.0328923836350441,0.04111548140645027,0.041830532252788544,0.04111548140645027,0.033964961767196655,0.0454057902097702,0.057919200509786606,0.07436539232730865,0.08223096281290054,0.09259921312332152,0.12477654963731764,0.12978190183639526,0.1390775889158249,0.13585984706878662,0.12441901862621307,0.11905612796545029,0.07043260335922241,0.041830532252788544,0.03181980550289154,0.019306398928165436,0.018591348081827164,0.012155881151556969,0.007150518242269754,0.012870932929217815,0.0,0.006792992353439331,0.016088666394352913,0.006435466464608908,0.06220950931310654,0.21415802836418152,0.4926707148551941,0.8745083808898927,0.9588845372200013,0.6249552965164185,0.386843055486679,0.27994281053543085,0.19020378589630127,0.14015015959739685,0.1161959245800972,0.09939220547676086,0.08616374433040619,0.07972828298807144,0.08258848637342453,0.07794065028429031,0.08187343925237656,0.08652127534151077,0.08902395516633987,0.09295673668384552,0.10010726004838943,0.0986771509051323,0.10904540866613388,0.1161959245800972,0.12012870609760284,0.0,0.0,0.0,0.0,0.0,0.0,0.0,0.0,0.0,0.0,0.0,0.0,0.0,0.0,0.0,0.0,0.0,0.0,0.0,0.0,0.0,0.0,0.0,0.0,0.0,0.0,0.0,0.0,0.0,0.0,0.0,0.0,0.0,0.0,0.0,0.0,0.0,0.0,0.0,0.0,0.0,0.0,0.0,0.0,0.0,0.0,0.0,0.0,0.0,0.0,0.0,0.0,1.0
0.9178861975669861,1.0,0.8422763943672181,0.30894309282302856,0.049593497067689896,0.21788617968559265,0.27804878354072565,0.3252032399177551,0.3829268217086792,0.4048780500888824,0.43821138143539423,0.4455284476280213,0.4268292784690857,0.4292683005332946,0.4504064917564392,0.4373983740806579,0.4544715583324432,0.4455284476280213,0.4414634108543396,0.43008130788803106,0.4390243887901306,0.4292683005332946,0.427642285823822,0.37967479228973394,0.37967479228973394,0.3886178731918335,0.36747968196868896,0.34471544623374933,0.35121950507164,0.34471544623374933,0.3333333432674408,0.30569106340408325,0.2918699085712433,0.2691057026386261,0.26178860664367676,0.27967479825019836,0.2528455257415771,0.20081301033496857,0.18943089246749875,0.19512194395065308,0.19105690717697144,0.2065040618181229,0.22601625323295593,0.20894308388233185,0.23333333432674408,0.26747968792915344,0.28780487179756165,0.2601625919342041,0.30569106340408325,0.28455284237861633,0.28211382031440735,0.24715447425842285,0.20000000298023224,0.1934959292411804,0.20325203239917755,0.21788617968559265,0.22682927548885343,0.1934959292411804,0.18617886304855344,0.20813007652759552,0.1845528483390808,0.2048780471086502,0.19105690717697144,0.22276422381401065,0.2048780471086502,0.1959349662065506,0.1869918704032898,0.15934959053993225,0.15934959053993225,0.15853658318519592,0.16910569369792938,0.15121951699256897,0.1934959292411804,0.21707317233085632,0.23089431226253507,0.27073171734809875,0.36504065990448,0.43414634466171265,0.3658536672592163,0.2487804889678955,0.1869918704032898,0.10162601619958876,0.0585365854203701,0.0788617879152298,0.047154471278190606,0.010569105856120586,0.012195121496915816,0.01300812978297472,0.027642276138067245,0.009756097570061685,0.06178861856460571,0.0,0.013821138069033623,0.13333334028720856,0.3617886304855346,0.7235772609710692,0.0,0.0,0.0,0.0,0.0,0.0,0.0,0.0,0.0,0.0,0.0,0.0,0.0,0.0,0.0,0.0,0.0,0.0,0.0,0.0,0.0,0.0,0.0,0.0,0.0,0.0,0.0,0.0,0.0,0.0,0.0,0.0,0.0,0.0,0.0,0.0,0.0,0.0,0.0,0.0,0.0,0.0,0.0,0.0,0.0,0.0,0.0,0.0,0.0,0.0,0.0,0.0,0.0,0.0,0.0,0.0,0.0,0.0,0.0,0.0,0.0,0.0,0.0,0.0,0.0,0.0,0.0,0.0,0.0,0.0,0.0,0.0,0.0,0.0,0.0,0.0,0.0,0.0,0.0,0.0,0.0,0.0,0.0,0.0,0.0,0.0,0.0,0.0,0.0,0.0,0.0,1.0
1.0,0.7867450714111328,0.4029930531978607,0.1817210018634796,0.1721004843711853,0.15606626868247983,0.1117049679160118,0.13201496005058289,0.10261891782283782,0.12185996770858765,0.12132549285888672,0.1288081258535385,0.1667557507753372,0.15553179383277893,0.1897381097078323,0.19615179300308228,0.19935862720012665,0.22715125977993011,0.22822020947933197,0.26028862595558167,0.26777124404907227,0.26028862595558167,0.30732229351997375,0.2832709848880768,0.317477285861969,0.32282203435897827,0.3137359619140625,0.3287012279033661,0.2832709848880768,0.28808122873306274,0.2592196762561798,0.2025654762983322,0.1945483684539795,0.1475147008895874,0.16354890167713165,0.13522180914878845,0.13041155040264127,0.14804917573928833,0.12987707555294037,0.1325494349002838,0.13468733429908752,0.12560127675533295,0.15446285903453827,0.1154462844133377,0.1400320678949356,0.14270444214344025,0.14430785179138184,0.17049705982208252,0.13308390974998474,0.1400320678949356,0.14858365058898923,0.125066801905632,0.1571352183818817,0.11491180956363677,0.13789416849613187,0.12560127675533295,0.10208445042371748,0.12773917615413663,0.10154997557401656,0.10315339267253876,0.09727418422698975,0.07055050879716873,0.1042223423719406,0.09353286772966383,0.12560127675533295,0.12185996770858765,0.10475681722164154,0.17637626826763153,0.17904864251613617,0.23142704367637632,0.2661678194999695,0.2650988698005676,0.27899518609046936,0.1400320678949356,0.10475681722164154,0.06306787580251694,0.0491715669631958,0.07856760919094087,0.04275788366794586,0.05611972138285637,0.05451630055904389,0.016568679362535477,0.0,0.12025655061006546,0.37306252121925354,0.9663281440734864,0.8428647518157958,0.4665954113006592,0.22715125977993011,0.17316943407058716,0.1475147008895874,0.11384286731481552,0.11491180956363677,0.0983431339263916,0.12453233450651167,0.1362907588481903,0.1288081258535385,0.1549973338842392,0.1341528594493866,0.1624799519777298,0.1774452179670334,0.1662212759256363,0.0,0.0,0.0,0.0,0.0,0.0,0.0,0.0,0.0,0.0,0.0,0.0,0.0,0.0,0.0,0.0,0.0,0.0,0.0,0.0,0.0,0.0,0.0,0.0,0.0,0.0,0.0,0.0,0.0,0.0,0.0,0.0,0.0,0.0,0.0,0.0,0.0,0.0,0.0,0.0,0.0,0.0,0.0,0.0,0.0,0.0,0.0,0.0,0.0,0.0,0.0,0.0,0.0,0.0,0.0,0.0,0.0,0.0,0.0,0.0,0.0,0.0,0.0,0.0,0.0,0.0,0.0,0.0,0.0,0.0,0.0,0.0,0.0,0.0,0.0,0.0,0.0,0.0,0.0,0.0,0.0,0.0,0.0,0.0,0.0,1.0
0.9471959471702576,0.8284777998924256,0.6897305250167847,0.4741442203521729,0.2268754541873932,0.21522213518619537,0.12126729637384415,0.11325564235448836,0.09941733628511429,0.07938820123672485,0.09286234527826309,0.0830298587679863,0.08994901925325394,0.0797523707151413,0.08230152726173402,0.09504733979701997,0.08193736523389816,0.09759650379419327,0.1019665002822876,0.1103423163294792,0.14348143339157104,0.13292060792446136,0.1758922040462494,0.19118718802928925,0.21267297863960263,0.24945375323295593,0.25855791568756104,0.30808448791503906,0.3313911259174347,0.34595775604248047,0.3503277599811554,0.3262927830219269,0.31536781787872314,0.27021121978759766,0.22906045615673065,0.18973051011562347,0.17079387605190277,0.17552803456783295,0.14129643142223358,0.1489439159631729,0.15258558094501495,0.13911142945289612,0.15986889600753784,0.14457392692565915,0.14530225098133087,0.1536780744791031,0.1267297863960266,0.1496722549200058,0.13292060792446136,0.1340131163597107,0.12891478836536407,0.12527312338352203,0.14020393788814545,0.12308812886476515,0.1365622729063034,0.12490896135568617,0.11871813237667084,0.1110706478357315,0.123452290892601,0.10597231984138487,0.11471230536699296,0.10451565682888032,0.12163146585226058,0.10233066231012344,0.09905316680669785,0.10233066231012344,0.09176984429359437,0.10342316329479216,0.10123816132545473,0.09176984429359437,0.09577567130327223,0.07683903723955156,0.08485069125890732,0.0954115092754364,0.0797523707151413,0.09176984429359437,0.06737072020769119,0.08448652923107147,0.08230152726173402,0.09104151278734209,0.10633648931980132,0.12563729286193848,0.15804806351661682,0.15331390500068665,0.17734886705875397,0.1660597175359726,0.15513473749160767,0.179169699549675,0.1522214114665985,0.11471230536699296,0.0954115092754364,0.07137654721736908,0.06919155269861221,0.06300073117017746,0.053168244659900665,0.055717408657073975,0.0444282591342926,0.05790240317583084,0.0,0.0797523707151413,0.3543335795402527,0.7815003395080566,1.0,0.6478514075279236,0.5356882810592651,0.3018936514854431,0.1711580455303192,0.14202477037906647,0.09359067678451538,0.0797523707151413,0.07064821571111679,0.05680990591645241,0.07356154173612595,0.07210487872362138,0.07028404623270035,0.07174071669578552,0.06117989867925644,0.08084486424922942,0.0815731957554817,0.07574654370546341,0.07938820123672485,0.09832483530044557,0.0,0.0,0.0,0.0,0.0,0.0,0.0,0.0,0.0,0.0,0.0,0.0,0.0,0.0,0.0,0.0,0.0,0.0,0.0,0.0,0.0,0.0,0.0,0.0,0.0,0.0,0.0,0.0,0.0,0.0,0.0,0.0,0.0,0.0,0.0,0.0,0.0,0.0,0.0,0.0,0.0,0.0,0.0,0.0,0.0,0.0,0.0,0.0,0.0,0.0,0.0,0.0,0.0,0.0,0.0,0.0,0.0,0.0,0.0,0.0,0.0,0.0,0.0,0.0,0.0,1.0
1.0,0.5436002016067505,0.4344722032546997,0.48240694403648376,0.40846505761146545,0.34829169511795044,0.31463539600372314,0.27893930673599243,0.34013259410858154,0.3421723544597626,0.3554309010505676,0.3166751563549042,0.34013259410858154,0.3533911406993866,0.346251904964447,0.3503314554691314,0.3498215079307556,0.3268740475177765,0.3906170427799225,0.3396226465702057,0.3421723544597626,0.34115245938301086,0.33911269903182983,0.35390105843544006,0.34115245938301086,0.3590005040168762,0.3508414030075073,0.34727180004119873,0.36766955256462097,0.3406425416469574,0.34727180004119873,0.3431922495365143,0.29831719398498535,0.3304436504840851,0.26721060276031494,0.274859756231308,0.28403875231742853,0.28709840774536133,0.3034166097640991,0.282508909702301,0.3003569543361664,0.2896481454372406,0.2830188572406769,0.30902600288391113,0.26823049783706665,0.28913819789886475,0.28913819789886475,0.28913819789886475,0.338602751493454,0.28811830282211304,0.3085160553455353,0.3380928039550781,0.30443650484085083,0.3360530436038971,0.29729729890823364,0.32177460193634033,0.3023967444896698,0.29678735136985773,0.3187149465084076,0.29474759101867676,0.2988271415233612,0.2830188572406769,0.2942376434803009,0.3069862425327301,0.26721060276031494,0.28097909688949585,0.28352880477905273,0.2621111571788788,0.28454869985580444,0.25293219089508057,0.2621111571788788,0.24732279777526855,0.2549719512462616,0.28352880477905273,0.24171340465545657,0.27434980869293213,0.2651708424091339,0.27281999588012695,0.29729729890823364,0.26160120964050293,0.26619070768356323,0.2641509473323822,0.26262110471725464,0.28913819789886475,0.24732279777526855,0.2733299434185028,0.2651708424091339,0.2641509473323822,0.3049464523792267,0.2559918463230133,0.2575216591358185,0.26925039291381836,0.2677205502986908,0.3396226465702057,0.30545639991760254,0.33911269903182983,0.3712391555309296,0.3671596050262451,0.3814380466938018,0.37021929025650024,0.3268740475177765,0.29474759101867676,0.2784293591976166,0.26925039291381836,0.22131565213203433,0.24171340465545657,0.23355430364608765,0.23610402643680573,0.24273329973220825,0.1993880718946457,0.11677715182304382,0.0,0.2585415542125702,0.7776644825935363,0.9433962106704714,0.5089240074157715,0.38194799423217773,0.43141254782676697,0.3712391555309296,0.31004589796066284,0.2978072464466095,0.2677205502986908,0.26568078994750977,0.28199899196624756,0.2503824532032013,0.28097909688949585,0.2697603404521942,0.2677205502986908,0.3085160553455353,0.27180010080337524,0.27536970376968384,0.2687404453754425,0.3003569543361664,0.31361550092697144,0.27638959884643555,0.2988271415233612,0.0,0.0,0.0,0.0,0.0,0.0,0.0,0.0,0.0,0.0,0.0,0.0,0.0,0.0,0.0,0.0,0.0,0.0,0.0,0.0,0.0,0.0,0.0,0.0,0.0,0.0,0.0,0.0,0.0,0.0,0.0,0.0,0.0,0.0,0.0,0.0,0.0,0.0,0.0,0.0,0.0,0.0,0.0,0.0,0.0,0.0,0.0,0.0,0.0,0.0,0.0,1.0
0.7806335687637329,1.0,0.5869694948196411,0.14644351601600647,0.09802749752998352,0.2145845741033554,0.26838016510009766,0.3054393231868744,0.3114166259765625,0.3221757411956787,0.32875075936317444,0.3215779960155487,0.3365212082862854,0.3317393958568573,0.3329348564147949,0.3359234929084778,0.3323371112346649,0.3413030505180359,0.32396891713142395,0.31978482007980347,0.3317393958568573,0.33950987458229065,0.3317393958568573,0.3257620930671692,0.32934847474098206,0.32815301418304443,0.31858935952186584,0.3209802806377411,0.2898983955383301,0.2749551832675934,0.2701733410358429,0.2797369956970215,0.3000597655773163,0.315002977848053,0.3305439352989197,0.34429168701171875,0.3508667051792145,0.3419007658958435,0.33472803235054016,0.32456663250923157,0.34907352924346924,0.3508667051792145,0.3514644205570221,0.34907352924346924,0.3520621657371521,0.34967124462127686,0.34907352924346924,0.3520621657371521,0.3419007658958435,0.34309622645378113,0.3359234929084778,0.35564854741096497,0.3472803235054016,0.3299461901187897,0.33950987458229065,0.33472803235054016,0.3167961835861206,0.3317393958568573,0.30842795968055725,0.3215779960155487,0.31918707489967346,0.34907352924346924,0.3765690326690674,0.3855349719524383,0.3921099901199341,0.3927077054977417,0.3891213536262512,0.4106395840644837,0.3789599537849426,0.35505080223083496,0.3789599537849426,0.34548714756965637,0.3221757411956787,0.29408249258995056,0.2898983955383301,0.26778241991996765,0.27256426215171814,0.27854153513908386,0.25343695282936096,0.2653914988040924,0.2803347408771515,0.2713688015937805,0.235505074262619,0.13687986135482788,0.22235505282878876,0.5552899241447449,0.9581589698791506,0.7704722285270691,0.27375972270965576,0.0,0.14465032517910004,0.21338912844657895,0.27854153513908386,0.26838016510009766,0.2904961109161377,0.2958756685256958,0.29288703203201294,0.306634783744812,0.27794381976127625,0.30304840207099915,0.3000597655773163,0.29766884446144104,0.3275552988052368,0.0,0.0,0.0,0.0,0.0,0.0,0.0,0.0,0.0,0.0,0.0,0.0,0.0,0.0,0.0,0.0,0.0,0.0,0.0,0.0,0.0,0.0,0.0,0.0,0.0,0.0,0.0,0.0,0.0,0.0,0.0,0.0,0.0,0.0,0.0,0.0,0.0,0.0,0.0,0.0,0.0,0.0,0.0,0.0,0.0,0.0,0.0,0.0,0.0,0.0,0.0,0.0,0.0,0.0,0.0,0.0,0.0,0.0,0.0,0.0,0.0,0.0,0.0,0.0,0.0,0.0,0.0,0.0,0.0,0.0,0.0,0.0,0.0,0.0,0.0,0.0,0.0,0.0,0.0,0.0,0.0,0.0,0.0,0.0,1.0
0.9935064911842345,1.0,0.9285714030265808,0.8246753215789795,0.75,0.5275974273681641,0.3636363744735718,0.22077922523021695,0.18506494164466855,0.1363636404275894,0.06818182021379471,0.04383116960525513,0.0,0.011363636702299118,0.06168831139802933,0.04058441519737243,0.0714285746216774,0.06331168860197067,0.0892857164144516,0.12987013161182404,0.1363636404275894,0.13311688601970673,0.15584415197372437,0.14610388875007627,0.17370130121707916,0.13149350881576538,0.09902597218751909,0.1006493493914604,0.1639610379934311,0.1574675291776657,0.13474026322364807,0.15909090638160703,0.1396103948354721,0.14935064315795898,0.13474026322364807,0.12987013161182404,0.11525973677635191,0.11525973677635191,0.10227272659540176,0.09740259498357773,0.09577921777963638,0.05681818351149559,0.09740259498357773,0.07792207598686218,0.06493506580591202,0.09902597218751909,0.09090909361839294,0.04545454680919647,0.048701297491788864,0.04707792028784752,0.030844155699014664,0.021103896200656887,0.01461038924753666,0.008116883225739002,0.024350648745894432,0.07629869878292084,0.10876623541116714,0.2678571343421936,0.38961037993431086,0.3538961112499237,0.44967532157897955,0.5016233921051025,0.43668830394744873,0.27272728085517883,0.0,0.0,0.0,0.0,0.0,0.0,0.0,0.0,0.0,0.0,0.0,0.0,0.0,0.0,0.0,0.0,0.0,0.0,0.0,0.0,0.0,0.0,0.0,0.0,0.0,0.0,0.0,0.0,0.0,0.0,0.0,0.0,0.0,0.0,0.0,0.0,0.0,0.0,0.0,0.0,0.0,0.0,0.0,0.0,0.0,0.0,0.0,0.0,0.0,0.0,0.0,0.0,0.0,0.0,0.0,0.0,0.0,0.0,0.0,0.0,0.0,0.0,0.0,0.0,0.0,0.0,0.0,0.0,0.0,0.0,0.0,0.0,0.0,0.0,0.0,0.0,0.0,0.0,0.0,0.0,0.0,0.0,0.0,0.0,0.0,0.0,0.0,0.0,0.0,0.0,0.0,0.0,0.0,0.0,0.0,0.0,0.0,0.0,0.0,0.0,0.0,0.0,0.0,0.0,0.0,0.0,0.0,0.0,0.0,0.0,0.0,0.0,0.0,0.0,0.0,0.0,0.0,0.0,0.0,0.0,0.0,0.0,0.0,1.0
0.9819427132606505,0.625778317451477,0.14072228968143463,0.12328767031431198,0.04047322645783424,0.07036114484071732,0.05541718378663063,0.04296388477087021,0.03798256441950799,0.02677459456026554,0.04483187943696976,0.026151930913329124,0.03362391144037247,0.032378580421209335,0.019925279542803764,0.06849315017461777,0.0541718564927578,0.07098381221294403,0.05541718378663063,0.054794520139694214,0.07721046358346939,0.07534246891736984,0.08966375887393951,0.09651307761669159,0.09028642624616623,0.1276463270187378,0.1488169431686401,0.1780821979045868,0.19676214456558228,0.22415940463542935,0.24221669137477872,0.2677459418773651,0.2876712381839752,0.33561643958091736,0.3107098340988159,0.32689914107322693,0.29701119661331177,0.29576587677001953,0.26525530219078064,0.22229140996932983,0.20361146330833435,0.16002491116523743,0.16127023100852966,0.14632627367973328,0.11207970231771468,0.14196762442588806,0.1164383590221405,0.12640099227428436,0.10772104561328888,0.1201743483543396,0.11706101894378662,0.09589041024446487,0.1083437129855156,0.11955168098211288,0.10772104561328888,0.11519302427768709,0.09775840491056442,0.11332502961158752,0.10896637290716173,0.12391033768653868,0.12515567243099213,0.09464508295059205,0.10896637290716173,0.1083437129855156,0.09028642624616623,0.09962639957666397,0.08281444758176804,0.10709837824106216,0.0853051021695137,0.0821917802095413,0.08281444758176804,0.0660024881362915,0.07222913950681686,0.06787048280239105,0.07285180687904358,0.06413449347019196,0.049813199788331985,0.0660024881362915,0.054794520139694214,0.05230386182665825,0.04919053614139557,0.046699874103069305,0.05853050947189331,0.04794520512223244,0.048567868769168854,0.056039851158857346,0.049813199788331985,0.07222913950681686,0.061021171510219574,0.06351183354854584,0.0660024881362915,0.0504358671605587,0.05230386182665825,0.03798256441950799,0.07098381221294403,0.1083437129855156,0.11830635368824004,0.13449564576148987,0.16064757108688354,0.20361146330833435,0.18306350708007812,0.1818181872367859,0.22291406989097595,0.21170610189437863,0.15940223634243011,0.08343710750341415,0.03611456975340843,0.02241593971848488,0.019302615895867348,0.011830635368824003,0.01743461936712265,0.018057284876704216,0.02677459456026554,0.021170610561966896,0.0,0.17995019257068634,0.49066001176834106,1.0,0.6214196681976318,0.1780821979045868,0.1313823163509369,0.04919053614139557,0.0815691128373146,0.06911581754684448,0.05230386182665825,0.046699874103069305,0.035491906106472015,0.049813199788331985,0.04794520512223244,0.046699874103069305,0.06787048280239105,0.057907845824956894,0.04109589010477065,0.05541718378663063,0.0541718564927578,0.06351183354854584,0.0,0.0,0.0,0.0,0.0,0.0,0.0,0.0,0.0,0.0,0.0,0.0,0.0,0.0,0.0,0.0,0.0,0.0,0.0,0.0,0.0,0.0,0.0,0.0,0.0,0.0,0.0,0.0,0.0,0.0,0.0,0.0,0.0,0.0,0.0,0.0,0.0,0.0,0.0,0.0,0.0,0.0,0.0,0.0,0.0,0.0,0.0,0.0,0.0,0.0,0.0,1.0
1.0,0.672260582447052,0.3030602037906647,0.0,0.20335637032985687,0.2764067053794861,0.17374135553836823,0.09476801753044128,0.09674234688282013,0.05824284255504608,0.08489634841680527,0.06712734699249268,0.07601184397935867,0.10365251451730728,0.08292201161384583,0.11747284978628159,0.11253701895475388,0.13030602037906647,0.15893386304378507,0.14807502925395963,0.199407696723938,0.20730502903461456,0.23494569957256317,0.28923988342285156,0.29812437295913696,0.3682132363319397,0.4146100580692291,0.4827245771884918,0.5873642563819885,0.6396840810775757,0.7462981343269349,0.8252714872360228,0.9101678133010864,0.9930898547172545,0.9812438488006592,0.9575518369674684,0.8311944603919983,0.6762092709541321,0.5320829153060913,0.34846988320350647,0.26159921288490295,0.16880552470684052,0.12339585274457932,0.1046396866440773,0.05034551024436951,0.06219150871038437,0.03257650509476662,0.038499508053064346,0.05034551024436951,0.02369200438261032,0.04146100580692291,0.025666337460279465,0.038499508053064346,0.060217175632715225,0.025666337460279465,0.054294176399707794,0.04146100580692291,0.048371173441410065,0.06614017486572266,0.04047384113073349,0.07206317782402039,0.0592300109565258,0.05330700799822807,0.07601184397935867,0.043435338884592056,0.0681145116686821,0.05330700799822807,0.049358341842889786,0.06317868083715439,0.026653503999114037,0.043435338884592056,0.031589340418577194,0.026653503999114037,0.04738400876522064,0.007897335104644299,0.0,0.0,0.0,0.0,0.0,0.0,0.0,0.0,0.0,0.0,0.0,0.0,0.0,0.0,0.0,0.0,0.0,0.0,0.0,0.0,0.0,0.0,0.0,0.0,0.0,0.0,0.0,0.0,0.0,0.0,0.0,0.0,0.0,0.0,0.0,0.0,0.0,0.0,0.0,0.0,0.0,0.0,0.0,0.0,0.0,0.0,0.0,0.0,0.0,0.0,0.0,0.0,0.0,0.0,0.0,0.0,0.0,0.0,0.0,0.0,0.0,0.0,0.0,0.0,0.0,0.0,0.0,0.0,0.0,0.0,0.0,0.0,0.0,0.0,0.0,0.0,0.0,0.0,0.0,0.0,0.0,0.0,0.0,0.0,0.0,0.0,0.0,0.0,0.0,0.0,0.0,0.0,0.0,0.0,0.0,0.0,0.0,0.0,0.0,0.0,0.0,0.0,0.0,0.0,0.0,0.0,0.0,0.0,0.0,0.0,0.0,0.0,1.0
1.0,0.6294335722923279,0.25674960017204285,0.03176283836364746,0.03652726486325264,0.07305452972650528,0.05082054063677788,0.05399682372808456,0.04764425754547119,0.014822657220065592,0.029645314440131187,0.007411328610032797,0.033880360424518585,0.01058761216700077,0.0026469030417501926,0.014293276704847813,0.004764425568282604,0.04817363619804382,0.03546850010752678,0.017998941242694855,0.03546850010752678,0.02699841186404228,0.05611434578895569,0.03705664351582527,0.04976177960634231,0.0682900995016098,0.08734780550003052,0.09422975033521652,0.11169931292533875,0.13552144169807434,0.16675490140914917,0.1503441035747528,0.16834303736686707,0.15140286087989807,0.15563790500164032,0.1482265740633011,0.12016940116882324,0.12334568798542021,0.11752250045537949,0.11752250045537949,0.105876125395298,0.10164108127355576,0.13710957765579224,0.10640550404787064,0.11116993427276611,0.1259925812482834,0.09952355921268465,0.11169931292533875,0.112758070230484,0.10799364745616911,0.10852302610874176,0.09581789374351501,0.10640550404787064,0.09264160692691803,0.09370037168264388,0.0989941731095314,0.08099523186683655,0.09687665104866029,0.07623080909252167,0.08946532756090164,0.08999470621347427,0.07252514362335205,0.09793541580438613,0.0682900995016098,0.07993647456169128,0.11540497839450836,0.11328745633363724,0.17998941242694855,0.17204870283603668,0.18898887932300568,0.23133933544158936,0.22657491266727448,0.19004765152931213,0.17310746014118195,0.10481736063957214,0.08258337527513504,0.06246691197156906,0.09528851509094238,0.04711487516760826,0.05240868031978607,0.06352567672729492,0.029115933924913406,0.0682900995016098,0.02593965083360672,0.04446797072887421,0.15669666230678558,0.37533086538314814,0.5283218622207642,0.6564319729804993,0.9454737901687622,0.6130227446556091,0.2080465853214264,0.039703547954559326,0.006881948094815016,0.03440973907709122,0.05240868031978607,0.027527792379260063,0.029645314440131187,0.005823187064379454,0.010058231651782988,0.023292748257517815,0.0021175225265324116,0.02117522433400154,0.0,0.010058231651782988,0.02011646330356598,0.0,0.0,0.0,0.0,0.0,0.0,0.0,0.0,0.0,0.0,0.0,0.0,0.0,0.0,0.0,0.0,0.0,0.0,0.0,0.0,0.0,0.0,0.0,0.0,0.0,0.0,0.0,0.0,0.0,0.0,0.0,0.0,0.0,0.0,0.0,0.0,0.0,0.0,0.0,0.0,0.0,0.0,0.0,0.0,0.0,0.0,0.0,0.0,0.0,0.0,0.0,0.0,0.0,0.0,0.0,0.0,0.0,0.0,0.0,0.0,0.0,0.0,0.0,0.0,0.0,0.0,0.0,0.0,0.0,0.0,0.0,0.0,0.0,0.0,0.0,0.0,0.0,0.0,0.0,0.0,0.0,1.0
1.0,0.58636075258255,0.23645633459091184,0.0726577416062355,0.04142766073346137,0.21096239984035492,0.26896113157272333,0.28489482402801514,0.2919056713581085,0.2950924038887024,0.30274060368537903,0.3103887736797333,0.3142128884792328,0.30274060368537903,0.31612491607666016,0.3142128884792328,0.3263224959373474,0.31357553601264954,0.3142128884792328,0.31230083107948303,0.3142128884792328,0.31230083107948303,0.3021032512187958,0.30656468868255615,0.3116634786128998,0.3199490010738373,0.3167622685432434,0.3167622685432434,0.31739962100982666,0.32441043853759766,0.3390694856643677,0.33779478073120117,0.33269599080085754,0.3428935706615448,0.3511790931224823,0.3613766729831695,0.36328873038291926,0.36902484297752386,0.36583811044692993,0.3607393205165863,0.37476098537445074,0.39388144016265875,0.4002549350261688,0.3951561450958252,0.4047163724899292,0.3932441174983978,0.3932441174983978,0.3773103952407837,0.35882729291915894,0.35882729291915894,0.3499043881893158,0.3467176556587219,0.3346080183982849,0.32441043853759766,0.3295092284679413,0.3212237060070038,0.31867432594299316,0.31867432594299316,0.32186105847358704,0.3224984109401703,0.32695984840393066,0.32695984840393066,0.3263224959373474,0.32823455333709717,0.3320586383342743,0.3224984109401703,0.32058635354042053,0.30783939361572266,0.30656468868255615,0.3180369734764099,0.319311648607254,0.3199490010738373,0.31739962100982666,0.31102612614631653,0.30274060368537903,0.30783939361572266,0.30911409854888916,0.31612491607666016,0.30911409854888916,0.3116634786128998,0.30975142121315,0.31102612614631653,0.300191193819046,0.2976418137550354,0.3008285462856293,0.3008285462856293,0.30274060368537903,0.3008285462856293,0.2919056713581085,0.2989165186882019,0.3046526312828064,0.3129381835460663,0.3072020411491394,0.293180376291275,0.30274060368537903,0.30911409854888916,0.3237731158733368,0.3288719058036804,0.3550031781196594,0.36838752031326294,0.37221160531044006,0.40407902002334595,0.46845123171806335,0.4550669193267822,0.4671765565872192,0.4455066919326782,0.4263862371444702,0.4021669924259186,0.40407902002334595,0.3467176556587219,0.31357553601264954,0.2880815863609314,0.2772466540336609,0.2664117217063904,0.26896113157272333,0.2676864266395569,0.2842575013637543,0.27533459663391113,0.26704907417297363,0.2797960340976715,0.3167622685432434,0.43467175960540766,0.509878933429718,0.7565328478813171,0.9247928857803344,0.47928616404533386,0.1784576177597046,0.0,0.07010834664106369,0.19120459258556363,0.25047799944877625,0.27660930156707764,0.27533459663391113,0.26577436923980713,0.27660930156707764,0.28043338656425476,0.28489482402801514,0.283620148897171,0.28170809149742126,0.2855321764945984,0.28999361395835876,0.293180376291275,0.290630966424942,0.2785213589668274,0.28744423389434814,0.27915871143341064,0.2759719491004944,0.27915871143341064,0.0,0.0,0.0,0.0,0.0,0.0,0.0,0.0,0.0,0.0,0.0,0.0,0.0,0.0,0.0,0.0,0.0,0.0,0.0,0.0,0.0,0.0,0.0,0.0,0.0,0.0,0.0,0.0,0.0,0.0,0.0,0.0,0.0,0.0,0.0,0.0,0.0,0.0,0.0,1.0
0.9579831957817077,0.38590821623802185,0.2184873968362808,0.26115062832832336,0.3361344635486603,0.3994828760623932,0.40336135029792786,0.4124111235141754,0.4117647111415863,0.4318034946918487,0.4369747936725616,0.4343891441822052,0.456367164850235,0.45313510298728943,0.47705236077308655,0.4841628968715668,0.49385908246040344,0.5210084319114685,0.529411792755127,0.5500969886779785,0.5488041639328003,0.5475113391876221,0.5636716485023499,0.5391079783439636,0.49967679381370544,0.48868778347969055,0.45959922671318054,0.4311570823192597,0.38332256674766546,0.36974790692329407,0.33936652541160583,0.3160956799983978,0.32191339135169983,0.31286361813545227,0.3186813294887543,0.2960568964481354,0.29541048407554626,0.30510666966438293,0.29476407170295715,0.2857142984867096,0.2805429995059967,0.2695539891719818,0.2798965871334076,0.2702004015445709,0.2857142984867096,0.32255980372428894,0.33936652541160583,0.3387201130390167,0.3374272882938385,0.3826761543750763,0.3031674325466156,0.3503555357456207,0.3820297420024872,0.35229477286338806,0.2967033088207245,0.2521008551120758,0.22947640717029572,0.24822236597537992,0.2365869432687759,0.2223658710718155,0.2191338092088699,0.20232708752155304,0.2243051081895828,0.2107304483652115,0.2223658710718155,0.22107304632663727,0.19844861328601837,0.22042663395404816,0.21008403599262235,0.21590174734592435,0.21008403599262235,0.19909502565860748,0.2178409844636917,0.21008403599262235,0.20814479887485504,0.20814479887485504,0.19457013905048368,0.2126696854829788,0.2068519741296768,0.20749838650226593,0.2055591493844986,0.2036199122667313,0.23270846903324127,0.20491273701190948,0.20620556175708768,0.16483516991138458,0.002585649723187089,0.0,0.5307046175003052,1.0,0.5345830917358398,0.2863607108592987,0.19198448956012723,0.29928895831108093,0.3322559893131256,0.37233355641365046,0.3645766079425812,0.38138332962989807,0.38009050488471985,0.38009050488471985,0.40271493792533875,0.3956044018268586,0.4240465462207794,0.4175824224948883,0.4169360101222992,0.438914030790329,0.0,0.0,0.0,0.0,0.0,0.0,0.0,0.0,0.0,0.0,0.0,0.0,0.0,0.0,0.0,0.0,0.0,0.0,0.0,0.0,0.0,0.0,0.0,0.0,0.0,0.0,0.0,0.0,0.0,0.0,0.0,0.0,0.0,0.0,0.0,0.0,0.0,0.0,0.0,0.0,0.0,0.0,0.0,0.0,0.0,0.0,0.0,0.0,0.0,0.0,0.0,0.0,0.0,0.0,0.0,0.0,0.0,0.0,0.0,0.0,0.0,0.0,0.0,0.0,0.0,0.0,0.0,0.0,0.0,0.0,0.0,0.0,0.0,0.0,0.0,0.0,0.0,0.0,0.0,0.0,0.0,1.0
