0.9992589950561525,0.9314560890197754,0.6331974864006042,0.3371618986129761,0.08966283500194548,0.0,0.054464615881443024,0.10633567720651627,0.10040755569934844,0.09633197635412216,0.1026306003332138,0.105594664812088,0.10892923176288603,0.10448314249515532,0.10707669705152512,0.1111522763967514,0.11004075407981873,0.12412004172801971,0.12412004172801971,0.13708780705928802,0.13894034922122955,0.1522786170244217,0.15635420382022855,0.1596887707710266,0.1767321228981018,0.18154871463775632,0.19711004197597504,0.2197110056877136,0.2419414669275284,0.26454243063926697,0.3034457266330719,0.3249351680278778,0.3464246094226837,0.3534642457962036,0.36680251359939575,0.36235642433166504,0.3534642457962036,0.34271952509880066,0.3090033233165741,0.27565765380859375,0.24453501403331757,0.20748426020145416,0.18117821216583252,0.15413115918636322,0.14449796080589294,0.13597628474235535,0.12782512605190277,0.12782512605190277,0.11856243014335632,0.11522786319255827,0.1081882193684578,0.10522415488958357,0.1026306003332138,0.10151907801628111,0.11041126400232316,0.11152278631925581,0.1041126325726509,0.10855872184038162,0.11078177392482756,0.10522415488958357,0.11485735327005386,0.1141163408756256,0.1111522763967514,0.11522786319255827,0.1126343086361885,0.10707669705152512,0.1141163408756256,0.11633938550949097,0.10596517473459244,0.10855872184038162,0.10448314249515532,0.11189329624176024,0.11485735327005386,0.10967025160789488,0.10374213010072708,0.105594664812088,0.105594664812088,0.10188958793878557,0.09484994411468506,0.09373842179775238,0.10040755569934844,0.10188958793878557,0.10188958793878557,0.10226009786128996,0.09781400859355927,0.09929603338241576,0.10522415488958357,0.10374213010072708,0.10151907801628111,0.10374213010072708,0.10670618712902068,0.1041126325726509,0.10892923176288603,0.10337162017822264,0.10188958793878557,0.10374213010072708,0.09966654330492021,0.09781400859355927,0.1126343086361885,0.10077806562185287,0.10226009786128996,0.10040755569934844,0.10744719952344894,0.12374953925609589,0.14042237401008603,0.15635420382022855,0.16635790467262268,0.20859578251838684,0.22045202553272247,0.23008522391319272,0.2248981148004532,0.1993330866098404,0.18710634112358093,0.17487958073616028,0.13708780705928802,0.09929603338241576,0.08225268870592117,0.0811411663889885,0.0726194903254509,0.07336050271987915,0.07298999279737473,0.05854019895195961,0.06743238121271133,0.16302333772182465,0.5598369836807251,1.0,0.9288625121116638,0.6150426268577576,0.3371618986129761,0.09781400859355927,0.010374212637543678,0.06150425970554352,0.11300481855869292,0.10929974168539049,0.1081882193684578,0.11522786319255827,0.11930344253778456,0.12708410620689392,0.13153019547462463,0.13486476242542267,0.1381993293762207,0.1396813690662384,0.1522786170244217,0.1526491343975067,0.15746572613716123,0.16450537741184235,0.1682104468345642,0.17450907826423645,0.19192293286323547,0.20303815603256223,0.2167469412088394,0.23156724870204923,0.253797709941864,0.2752871513366699,0.29974064230918884,0.32011857628822327,0.35531678795814514,0.3831048607826233,0.0,0.0,0.0,0.0,0.0,0.0,0.0,0.0,0.0,0.0,0.0,0.0,0.0,0.0,0.0,0.0,0.0,0.0,0.0,0.0,0.0,0.0,0.0,0.0,0.0,0.0,0.0,0.0,0.0,0.0
0.9795134663581848,0.8649168014526366,0.4455825984477997,0.10115236788988112,0.0,0.23047375679016113,0.32970550656318665,0.3463508188724518,0.3655569851398468,0.3751600384712219,0.38476312160491943,0.39820742607116694,0.40460947155952454,0.41549295186996454,0.41549295186996454,0.4257362484931946,0.4097311198711395,0.4276568591594696,0.4135723412036896,0.43277847766876226,0.4551856517791748,0.4577464759349823,0.46414852142333984,0.4923175275325775,0.5358514785766602,0.5909090638160706,0.6216389536857605,0.6824584007263184,0.703585147857666,0.7336747646331787,0.7631242275238037,0.7855313420295715,0.7695262432098389,0.7183098793029785,0.6690140962600708,0.577464759349823,0.519206166267395,0.4692701697349548,0.4244558215141296,0.4174135625362396,0.407170295715332,0.38412290811538696,0.37195903062820435,0.37451985478401184,0.3687579929828644,0.3687579929828644,0.38668373227119446,0.400128036737442,0.3937259912490845,0.40140846371650696,0.416133165359497,0.4007682502269745,0.41165173053741455,0.4282970428466797,0.42957746982574463,0.4353393018245697,0.4417413473129272,0.45070421695709234,0.4411011636257171,0.4513444304466247,0.45006403326988226,0.4449423849582672,0.44686299562454224,0.4449423849582672,0.4321382939815522,0.44622278213500977,0.43854033946990967,0.4282970428466797,0.41549295186996454,0.4199743866920471,0.40524968504905695,0.4148527383804322,0.407170295715332,0.41549295186996454,0.4084506928920746,0.4180537760257721,0.41933417320251465,0.4257362484931946,0.45262482762336725,0.4417413473129272,0.43661972880363464,0.4340589046478271,0.42317542433738703,0.4276568591594696,0.4180537760257721,0.4282970428466797,0.4135723412036896,0.4257362484931946,0.4206146001815796,0.4129321277141571,0.4359795153141022,0.4199743866920471,0.407170295715332,0.41677337884902954,0.47119078040122986,0.515364944934845,0.5595390796661377,0.5614596605300903,0.5473751425743103,0.515364944934845,0.5448143482208252,0.5121638774871826,0.4801536500453949,0.4628681242465973,0.43918052315711975,0.4244558215141296,0.4308578670024872,0.4302176833152771,0.42317542433738703,0.42893725633621216,0.4180537760257721,0.40396925806999207,0.39884763956069946,0.5064020752906799,0.5896286964416504,0.6510883569717407,0.9468629956245422,1.0,0.6562100052833557,0.3233034610748291,0.09154929220676422,0.17285531759262085,0.38796415925025934,0.42509603500366205,0.43149808049201965,0.4628681242465973,0.4846350848674774,0.4865556955337525,0.508962869644165,0.5064020752906799,0.5006402134895325,0.5,0.5121638774871826,0.5172855257987976,0.5339308381080627,0.5492957830429077,0.5729833841323853,0.5941101312637329,0.6184378862380981,0.6440460681915283,0.6638924479484558,0.6920614838600159,0.0,0.0,0.0,0.0,0.0,0.0,0.0,0.0,0.0,0.0,0.0,0.0,0.0,0.0,0.0,0.0,0.0,0.0,0.0,0.0,0.0,0.0,0.0,0.0,0.0,0.0,0.0,0.0,0.0,0.0,0.0,0.0,0.0,0.0,0.0,0.0,0.0,0.0,0.0,0.0,0.0,0.0,0.0,0.0,0.0,0.0
0.953801155090332,1.0,0.5666666626930237,0.17251461744308472,0.053801167756319046,0.08596491068601608,0.05555555596947669,0.053801167756319046,0.049707602709531784,0.029239766299724575,0.06315789371728897,0.035087719559669495,0.04912280663847923,0.0543859638273716,0.0397660806775093,0.07836257666349411,0.03801169618964195,0.05847953259944916,0.06374268978834152,0.04035087674856186,0.06959064304828644,0.03450292348861694,0.06315789371728897,0.08479531854391098,0.06549707800149918,0.10935672372579575,0.09005848318338394,0.11169590801000596,0.13450291752815247,0.15146198868751523,0.21052631735801697,0.21286550164222717,0.24678362905979156,0.27368420362472534,0.2742690145969391,0.31111112236976624,0.2935672402381897,0.3064327538013458,0.3187134563922882,0.3023391664028168,0.3093567192554474,0.2561403512954712,0.226900577545166,0.19532163441181183,0.16549707949161527,0.1643274873495102,0.12397661060094832,0.13801169395446777,0.13859649002552032,0.12280701845884325,0.1619883030653,0.12046783417463303,0.1269005835056305,0.132748544216156,0.12514619529247284,0.15906432271003723,0.12865497171878815,0.13684210181236267,0.1508771926164627,0.13216374814510343,0.17192982137203217,0.14093567430973053,0.15263158082962036,0.1532163769006729,0.13976608216762543,0.1736842095851898,0.13567250967025757,0.14795321226119995,0.1619883030653,0.14093567430973053,0.1666666716337204,0.1257309913635254,0.135087713599205,0.14561402797698975,0.12514619529247284,0.15555556118488312,0.1181286573410034,0.12631578743457794,0.13801169395446777,0.10994151979684828,0.14210526645183563,0.09766081720590591,0.11520467698574066,0.11754386126995087,0.09239766001701355,0.11286550015211104,0.07894736528396606,0.07836257666349411,0.09824561327695847,0.08479531854391098,0.10409356653690338,0.07426900416612625,0.09122806787490845,0.10175438225269316,0.09005848318338394,0.11695906519889832,0.09064327180385588,0.10584795475006104,0.10467836260795592,0.08713450282812119,0.10935672372579575,0.08304093778133392,0.098830409348011,0.10116959363222122,0.0748538002371788,0.10935672372579575,0.08187134563922882,0.10760233551263808,0.15672515332698822,0.14561402797698975,0.1713450253009796,0.14269006252288818,0.16549707949161527,0.14152047038078308,0.09356725215911864,0.09766081720590591,0.06374268978834152,0.08713450282812119,0.056725144386291504,0.030409356579184532,0.04736842215061188,0.011695906519889832,0.026900583878159523,0.03333333507180214,0.0023391812574118376,0.0,0.10175438225269316,0.5029239654541016,0.8929824829101564,0.9614034891128541,0.5356724858283997,0.13684210181236267,0.04736842215061188,0.061403509229421616,0.03684210404753685,0.06198830530047417,0.025146199390292168,0.035087719559669495,0.04035087674856186,0.023391813039779663,0.05497075989842414,0.022222222760319706,0.031578946858644485,0.0362573117017746,0.0187134500592947,0.05146198719739914,0.020467836409807205,0.04093567281961441,0.04444444552063941,0.031578946858644485,0.057309940457344055,0.03684210404753685,0.06432748585939407,0.0736842080950737,0.0,0.0,0.0,0.0,0.0,0.0,0.0,0.0,0.0,0.0,0.0,0.0,0.0,0.0,0.0,0.0,0.0,0.0,0.0,0.0,0.0,0.0,0.0,0.0,0.0,0.0,0.0,0.0,0.0,0.0,0.0,0.0,0.0,0.0
0.9555246829986572,0.2953439950942993,0.033356498926877975,0.006949270144104958,0.05628908798098564,0.11813759803771973,0.13551077246665955,0.15705351531505585,0.1619179993867874,0.16330784559249875,0.1730368286371231,0.1688672751188278,0.17234189808368683,0.17512160539627075,0.15635858476161957,0.16052813827991483,0.17025712132453918,0.1626129299402237,0.1737317591905594,0.1737317591905594,0.1730368286371231,0.17095205187797546,0.17164698243141174,0.19041000306606293,0.187630295753479,0.18971507251262665,0.19596941769123075,0.20222376286983487,0.21473245322704315,0.2404447495937347,0.25156357884407043,0.28283530473709106,0.31619179248809814,0.3509381413459778,0.3981931805610657,0.4496178030967712,0.4871438443660736,0.5462126731872559,0.5886031985282898,0.6219596862792969,0.643502414226532,0.6407227516174316,0.601111888885498,0.5462126731872559,0.4871438443660736,0.4120917320251465,0.35858234763145447,0.30159834027290344,0.26476719975471497,0.2272411435842514,0.22237664461135864,0.20222376286983487,0.18693536520004272,0.1841556578874588,0.18554551899433136,0.1806810349225998,0.18624044954776764,0.1841556578874588,0.18902015686035156,0.19249479472637177,0.19041000306606293,0.19735927879810333,0.2008339166641235,0.20639333128929135,0.1980542093515396,0.20013898611068723,0.2133425921201706,0.21125781536102295,0.21403752267360687,0.2098679691553116,0.2133425921201706,0.20847810804843905,0.19944405555725095,0.2070882618427277,0.20361362397670743,0.19666434824466705,0.19179986417293549,0.18693536520004272,0.1772063970565796,0.17929117381572723,0.18485058844089508,0.18276581168174744,0.18276581168174744,0.1730368286371231,0.17512160539627075,0.17929117381572723,0.1737317591905594,0.1730368286371231,0.17581653594970703,0.17095205187797546,0.1737317591905594,0.16817234456539154,0.17095205187797546,0.1653926372528076,0.1556636542081833,0.1626129299402237,0.17164698243141174,0.1591382920742035,0.1619179993867874,0.16608756780624387,0.16330784559249875,0.16608756780624387,0.16608756780624387,0.1688672751188278,0.16330784559249875,0.16678248345851898,0.15357887744903564,0.1646977066993713,0.1653926372528076,0.1612230688333511,0.1653926372528076,0.16678248345851898,0.17025712132453918,0.1688672751188278,0.1772063970565796,0.17581653594970703,0.20778317749500272,0.2599027156829834,0.2751910984516144,0.28769978880882263,0.28283530473709106,0.30854761600494385,0.3467685878276825,0.3495483100414276,0.3724808990955353,0.3467685878276825,0.3175816535949707,0.2640722692012787,0.22446143627166748,0.18624044954776764,0.17442668974399567,0.1619179993867874,0.15010423958301544,0.1410701870918274,0.1410701870918274,0.14246004819869995,0.1375955492258072,0.12717165052890775,0.1841556578874588,0.26963168382644653,0.24739402532577512,0.268241822719574,0.7470465898513794,1.0,0.32244613766670227,0.05281445384025574,0.0,0.05837387219071388,0.12022237479686736,0.14315496385097504,0.1514940857887268,0.17234189808368683,0.16400277614593503,0.1688672751188278,0.17025712132453918,0.17581653594970703,0.17929117381572723,0.18346074223518372,0.1806810349225998,0.1799861043691635,0.18693536520004272,0.18971507251262665,0.1841556578874588,0.18971507251262665,0.18485058844089508,0.18207088112831116,0.18624044954776764,0.1945795714855194,0.19179986417293549,0.19666434824466705,0.20847810804843905,0.0,0.0,0.0,0.0,0.0,0.0,0.0,0.0,0.0,0.0,0.0,0.0,0.0,0.0,0.0,0.0,0.0
1.0,0.5340501666069031,0.3096774220466614,0.07849462330341339,0.02974910475313663,0.08673834800720215,0.1387096792459488,0.1340501755475998,0.13369175791740415,0.14050179719924927,0.14086021482944489,0.1437276005744934,0.14731182157993317,0.14444445073604584,0.14767025411128995,0.14910393953323364,0.14982078969478607,0.1559139788150787,0.15698924660682678,0.16164875030517578,0.17526881396770477,0.17777778208255768,0.18602150678634644,0.1964157670736313,0.20537634193897247,0.22007168829441073,0.2329749166965485,0.24444444477558136,0.2498207837343216,0.2569892406463623,0.2641577124595642,0.26021504402160645,0.2612903118133545,0.24587813019752505,0.2315412163734436,0.2043010741472244,0.1810035854578018,0.15806451439857483,0.14086021482944489,0.12867383658885956,0.11756272614002228,0.10824372619390488,0.10752688348293304,0.10788530111312866,0.1068100333213806,0.10573476552963255,0.10501792281866072,0.11003584414720537,0.10716845840215682,0.10752688348293304,0.11326164752244948,0.1111111119389534,0.11075268685817719,0.10824372619390488,0.116129033267498,0.11863799393177032,0.11397849768400192,0.1136200726032257,0.10788530111312866,0.10322580486536026,0.10286738723516464,0.10143369436264038,0.10035842657089232,0.09641577303409576,0.09390681236982344,0.0946236550807953,0.08853046596050262,0.08781362324953078,0.08673834800720215,0.08387096971273422,0.08387096971273422,0.0810035839676857,0.08387096971273422,0.07921146601438521,0.08207885175943375,0.08387096971273422,0.083512544631958,0.08458781242370605,0.08602150529623032,0.08422938734292984,0.08279570192098618,0.08028674125671387,0.08279570192098618,0.0856630802154541,0.07956989109516144,0.08637993037700653,0.10537634044885635,0.12867383658885956,0.12616486847400665,0.11254480481147766,0.10322580486536026,0.09605734795331955,0.09569892287254332,0.08960573375225067,0.09103942662477493,0.08136200904846191,0.06415770947933197,0.05949820950627327,0.059139784425497055,0.05806451663374901,0.05878136307001114,0.059139784425497055,0.0716845914721489,0.07096774131059647,0.07383512705564499,0.07956989109516144,0.08745519816875458,0.06523297727108002,0.17275986075401306,0.4795698821544647,0.9372760057449341,0.6379928588867188,0.3587813675403595,0.1390680968761444,0.0,0.04910394176840782,0.10967741906642912,0.11505376547574996,0.11182795464992525,0.11075268685817719,0.11254480481147766,0.11433691531419754,0.1204301044344902,0.12114695459604265,0.11827956885099412,0.12222222238779068,0.11899641901254653,0.1250896006822586,0.12831541895866394,0.13835126161575317,0.1505376398563385,0.15412186086177823,0.0,0.0,0.0,0.0,0.0,0.0,0.0,0.0,0.0,0.0,0.0,0.0,0.0,0.0,0.0,0.0,0.0,0.0,0.0,0.0,0.0,0.0,0.0,0.0,0.0,0.0,0.0,0.0,0.0,0.0,0.0,0.0,0.0,0.0,0.0,0.0,0.0,0.0,0.0,0.0,0.0,0.0,0.0,0.0,0.0,0.0,0.0,0.0,0.0,0.0,0.0,0.0,0.0,0.0,0.0,0.0
0.9737196564674376,0.6152291297912598,0.23382748663425443,0.003369272220879793,0.1071428582072258,0.2688679099082947,0.29851752519607544,0.3214285671710968,0.3349056541919708,0.3463611900806427,0.3537735939025879,0.36253368854522705,0.3632075488567352,0.36927223205566406,0.38005390763282776,0.3793800473213196,0.3901617228984833,0.40700808167457586,0.41913747787475586,0.4272237122058869,0.440026968717575,0.46967655420303345,0.486522912979126,0.5249326229095459,0.5768194198608398,0.6159029603004456,0.6623989343643188,0.6994609236717224,0.7324798107147216,0.7540431022644043,0.7681940793991088,0.7614555358886719,0.7183288335800171,0.6536388397216797,0.5768194198608398,0.5020215511322021,0.44070079922676086,0.3921832740306854,0.35849055647850037,0.3463611900806427,0.3328841030597687,0.3254716992378235,0.3247978389263153,0.3214285671710968,0.3113207519054413,0.3187331557273865,0.31266847252845764,0.3106468915939331,0.31536388397216797,0.31603774428367615,0.32008087635040283,0.3214285671710968,0.31603774428367615,0.3247978389263153,0.3301886916160583,0.3247978389263153,0.33423179388046265,0.3301886916160583,0.33423179388046265,0.3349056541919708,0.33086252212524414,0.34097033739089966,0.3349056541919708,0.3322102427482605,0.33355796337127686,0.32412397861480713,0.32749325037002563,0.3254716992378235,0.32749325037002563,0.31940701603889465,0.3133423328399658,0.30121293663978577,0.2958221137523651,0.2971698045730591,0.3039083480834961,0.30188679695129395,0.30121293663978577,0.3005390763282776,0.29784366488456726,0.29784366488456726,0.30121293663978577,0.30525606870651245,0.29851752519607544,0.3113207519054413,0.30592992901802063,0.3072776198387146,0.2971698045730591,0.3072776198387146,0.32277628779411316,0.37398922443389887,0.4043126702308654,0.40498653054237366,0.4555256068706512,0.49326145648956293,0.46832883358001715,0.46765497326850886,0.43261456489562994,0.3719676434993744,0.3463611900806427,0.30862534046173096,0.2931266725063324,0.2897574007511139,0.2971698045730591,0.28773584961891174,0.28099730610847473,0.2890835702419281,0.2890835702419281,0.2958221137523651,0.4252021610736847,0.45013478398323054,0.5822102427482605,1.0,0.9433962106704714,0.5384097099304199,0.14824797213077545,0.0,0.20148247480392456,0.31199461221694946,0.32951483130455017,0.3530997335910797,0.36253368854522705,0.37129381299018854,0.37870618700981135,0.3854447305202484,0.38881400227546686,0.3995956778526306,0.400943398475647,0.4117250740528106,0.4184636175632477,0.427897572517395,0.4359838366508484,0.4541778862476349,0.4743935167789459,0.4925875961780548,0.5148248076438904,0.5464959740638733,0.5950134992599487,0.637466311454773,0.6832883954048157,0.7223719954490663,0.7506738305091858,0.7722371816635131,0.7823449969291686,0.7708894610404968,0.731805920600891,0.6691374778747559,0.5916442275047302,0.5060647130012512,0.45013478398323054,0.3995956778526306,0.0,0.0,0.0,0.0,0.0,0.0,0.0,0.0,0.0,0.0,0.0,0.0,0.0,0.0,0.0,0.0,0.0,0.0,0.0,0.0,0.0,0.0,0.0,0.0,0.0,0.0,0.0,0.0,0.0,0.0,0.0,0.0,0.0,0.0,0.0,0.0,0.0,0.0
1.0,0.3348509967327118,0.0,0.12168873846530914,0.16349337995052335,0.1808774769306183,0.1754966825246811,0.1593542993068695,0.16142384707927704,0.1589404046535492,0.1593542993068695,0.159768208861351,0.16970199346542358,0.17218543589115143,0.16721853613853455,0.1763245016336441,0.1759105920791626,0.18377482891082764,0.19701986014842987,0.2040562927722931,0.1999172121286392,0.21481788158416748,0.22475165128707883,0.23427152633666992,0.25,0.2673841118812561,0.28600993752479553,0.3000827729701996,0.3240894079208374,0.34354305267333984,0.3663079440593719,0.36299669742584223,0.3638245165348053,0.3522351086139679,0.33899006247520447,0.3166390657424927,0.2719370722770691,0.25827813148498535,0.23137417435646057,0.222268208861351,0.2168874144554138,0.20157285034656525,0.1982615888118744,0.20695364475250244,0.19205297529697415,0.19660596549510956,0.19950331747531888,0.2044702023267746,0.20819535851478577,0.20860926806926727,0.2040562927722931,0.2036423832178116,0.19619205594062805,0.20860926806926727,0.20488411188125608,0.1941225230693817,0.20074503123760223,0.18915562331676483,0.20074503123760223,0.17963576316833496,0.19743376970291135,0.18460264801979065,0.18625827133655548,0.1854304671287537,0.17880794405937195,0.16142384707927704,0.17880794405937195,0.1767384111881256,0.188327819108963,0.17839403450489044,0.18046358227729797,0.1767384111881256,0.16846026480197906,0.16846026480197906,0.194536417722702,0.21440397202968595,0.22061258554458615,0.2437913864850998,0.25248345732688904,0.22930464148521423,0.25331124663352966,0.2512417137622833,0.23468543589115143,0.21399006247520447,0.19081126153469083,0.17880794405937195,0.15645694732666016,0.1254139095544815,0.14776490628719327,0.13783112168312073,0.12955297529697418,0.12458609044551848,0.12127483636140823,0.12168873846530914,0.08816225081682205,0.17756623029708862,0.4246688783168793,0.764072835445404,0.9925496578216552,0.737582802772522,0.15521523356437683,0.03187086060643196,0.11920529603958128,0.13990066945552823,0.14072847366333008,0.13534767925739288,0.14445364475250244,0.13617549836635587,0.13451986014842987,0.12789735198020935,0.13286423683166504,0.15728476643562317,0.15066225826740265,0.14528146386146543,0.1593542993068695,0.16846026480197906,0.16928808391094208,0.0,0.0,0.0,0.0,0.0,0.0,0.0,0.0,0.0,0.0,0.0,0.0,0.0,0.0,0.0,0.0,0.0,0.0,0.0,0.0,0.0,0.0,0.0,0.0,0.0,0.0,0.0,0.0,0.0,0.0,0.0,0.0,0.0,0.0,0.0,0.0,0.0,0.0,0.0,0.0,0.0,0.0,0.0,0.0,0.0,0.0,0.0,0.0,0.0,0.0,0.0,0.0,0.0,0.0,0.0,0.0,0.0,0.0,0.0,0.0,0.0,0.0,0.0,0.0,0.0,0.0,0.0,0.0,0.0,0.0,0.0
1.0,0.6760026812553406,0.1595339477062225,0.05086264759302139,0.08402419835329056,0.08984987437725067,0.07147658616304398,0.06565091013908386,0.06139368191361427,0.062065873295068734,0.06228993833065033,0.06654716283082962,0.06744342297315598,0.07125251740217209,0.07438942044973373,0.08043916523456573,0.07999103516340256,0.08648891001939772,0.09029800444841386,0.09500335901975632,0.0934349074959755,0.09858839213848114,0.1073269098997116,0.11427290737628935,0.12301142513751984,0.13421465456485748,0.1420569121837616,0.15729330480098724,0.1716334372758865,0.18619762361049652,0.20815594494342804,0.2227201461791992,0.234819620847702,0.24983194470405576,0.2581223249435425,0.25901859998703,0.2426618933677673,0.21846291422843933,0.1844051033258438,0.15326014161109924,0.1216670423746109,0.10038091242313384,0.08424826711416245,0.07550974935293196,0.06833968311548233,0.06654716283082962,0.06228993833065033,0.06385838985443115,0.06318619847297668,0.06318619847297668,0.062065873295068734,0.05713645368814468,0.0629621297121048,0.05982523038983345,0.06318619847297668,0.06161774694919586,0.06049742177128792,0.06139368191361427,0.05803271383047104,0.06049742177128792,0.06251400709152222,0.05713645368814468,0.06027336046099662,0.05825677886605262,0.05579206719994545,0.05601613223552704,0.05534394085407257,0.05713645368814468,0.05511987581849098,0.05422361567616463,0.05377548560500145,0.05287922918796539,0.05534394085407257,0.052431099116802216,0.05601613223552704,0.05534394085407257,0.05086264759302139,0.05399955064058304,0.05556800216436386,0.05422361567616463,0.05422361567616463,0.0466054230928421,0.050414517521858215,0.04951826110482216,0.05063858255743981,0.04929419606924057,0.0466054230928421,0.04951826110482216,0.048397939652204514,0.04772574454545975,0.052431099116802216,0.04638135805726051,0.05131077766418457,0.04884606599807739,0.04974232614040374,0.052431099116802216,0.04951826110482216,0.05131077766418457,0.04974232614040374,0.04929419606924057,0.05377548560500145,0.05153484269976616,0.05287922918796539,0.05579206719994545,0.06565091013908386,0.08805736154317856,0.10015684366226196,0.10419000685214996,0.11404884606599808,0.125476136803627,0.13018149137496948,0.1093434914946556,0.09074613451957703,0.07887071371078491,0.07282096892595291,0.058928970247507095,0.048397939652204514,0.048397939652204514,0.04436477646231651,0.039659421890974045,0.04638135805726051,0.04100380837917328,0.04212413355708122,0.0,0.018149226903915405,0.13914407789707184,0.47927403450012207,0.9419673085212709,0.8586152791976928,0.32108446955680847,0.06049742177128792,0.06475464999675751,0.10239749401807784,0.07730226218700409,0.07438942044973373,0.06878781318664551,0.06385838985443115,0.06654716283082962,0.06744342297315598,0.07013219594955444,0.07663007080554962,0.07752633094787596,0.08066323399543762,0.08223168551921844,0.09029800444841386,0.09567555785179138,0.0952274277806282,0.09881246089935303,0.10508626699447632,0.1113600730895996,0.1156172975897789,0.1257002055644989,0.13533498346805573,0.1402643918991089,0.0,0.0,0.0,0.0,0.0,0.0,0.0,0.0,0.0,0.0,0.0,0.0,0.0,0.0,0.0,0.0,0.0,0.0,0.0,0.0,0.0,0.0,0.0,0.0,0.0,0.0,0.0,0.0,0.0,0.0,0.0,0.0,0.0,0.0
1.0,0.6065475940704346,0.38353174924850464,0.17638888955116272,0.164682537317276,0.18869048357009888,0.1875,0.18035714328289032,0.18214285373687744,0.18015873432159424,0.1875,0.18531745672225952,0.18611110746860504,0.18809524178504944,0.1894841343164444,0.19880951941013336,0.19861111044883728,0.19781745970249176,0.20575396716594696,0.20912697911262512,0.22162698209285736,0.22956348955631256,0.2390872985124588,0.25238096714019775,0.2656745910644531,0.28511905670166016,0.2968254089355469,0.3055555522441864,0.32182538509368896,0.3255952298641205,0.3331349194049835,0.3303571343421936,0.32380953431129456,0.30912697315216064,0.2847222089767456,0.2630952298641205,0.2351190447807312,0.21547618508338928,0.20317460596561432,0.18988095223903656,0.18869048357009888,0.17976190149784088,0.17599205672740936,0.17837300896644592,0.17638888955116272,0.18293650448322296,0.18174603581428528,0.17837300896644592,0.18075396120548248,0.17916665971279144,0.1825396865606308,0.17718254029750824,0.17400793731212616,0.17400793731212616,0.17400793731212616,0.17916665971279144,0.17281745374202728,0.17043650150299072,0.17380952835083008,0.17301587760448456,0.17638888955116272,0.16825397312641144,0.16785714030265808,0.16944444179534912,0.16527777910232544,0.1696428507566452,0.16706348955631256,0.16488094627857208,0.17123015224933624,0.1865079402923584,0.20079365372657776,0.20575396716594696,0.20218254625797272,0.21051587164402008,0.21686507761478424,0.2261904776096344,0.2212301641702652,0.20892857015132904,0.18293650448322296,0.16488094627857208,0.1626984179019928,0.15456348657608032,0.14761905372142792,0.14702381193637848,0.14226190745830536,0.14464285969734192,0.14265872538089752,0.14067460596561432,0.14345237612724304,0.13928571343421936,0.13174603879451752,0.027579365298151966,0.0,0.20952381193637848,0.5285714268684387,0.9226190447807312,0.7107142806053162,0.43591269850730896,0.2291666716337204,0.14265872538089752,0.1716269850730896,0.17281745374202728,0.16706348955631256,0.16785714030265808,0.167658731341362,0.17519840598106384,0.17519840598106384,0.17242063581943512,0.17817460000514984,0.18075396120548248,0.18928571045398712,0.1865079402923584,0.18869048357009888,0.1954365074634552,0.0,0.0,0.0,0.0,0.0,0.0,0.0,0.0,0.0,0.0,0.0,0.0,0.0,0.0,0.0,0.0,0.0,0.0,0.0,0.0,0.0,0.0,0.0,0.0,0.0,0.0,0.0,0.0,0.0,0.0,0.0,0.0,0.0,0.0,0.0,0.0,0.0,0.0,0.0,0.0,0.0,0.0,0.0,0.0,0.0,0.0,0.0,0.0,0.0,0.0,0.0,0.0,0.0,0.0,0.0,0.0,0.0,0.0,0.0,0.0,0.0,0.0,0.0,0.0,0.0,0.0,0.0,0.0,0.0,0.0,0.0,0.0,0.0,0.0
0.997871458530426,0.8475947380065918,0.4286930561065674,0.19242230057716367,0.04427415877580643,0.009365687146782877,0.0800340548157692,0.12217964977025984,0.14261387288570404,0.15368241071701047,0.149850994348526,0.15070243179798126,0.1524052768945694,0.15836526453495023,0.17028522491455078,0.1783737689256668,0.1783737689256668,0.18220520019531247,0.18390804529190063,0.18816517293453217,0.1966794431209564,0.20093657076358795,0.19795657694339752,0.20306512713432312,0.20732226967811584,0.22264793515205383,0.24350787699222565,0.2520221471786499,0.2741592228412628,0.3103448152542114,0.33035334944725037,0.3439761698246002,0.3473818600177765,0.35845041275024414,0.36355894804000854,0.35845041275024414,0.33759045600891113,0.30949339270591736,0.27969348430633545,0.2541506886482239,0.23882503807544708,0.21285653114318848,0.2026394158601761,0.1894423216581345,0.1694338023662567,0.1575138419866562,0.1472967267036438,0.15283098816871643,0.15197956562042236,0.1434653103351593,0.15453384816646576,0.15836526453495023,0.15793955326080322,0.16773094236850739,0.16687951982021332,0.1732652187347412,0.17283950746059415,0.16687951982021332,0.1681566685438156,0.1587909758090973,0.15453384816646576,0.15325669944286346,0.15623669326305387,0.15453384816646576,0.14261387288570404,0.14048531651496887,0.1434653103351593,0.15155385434627533,0.15410813689231873,0.15581098198890686,0.1600681096315384,0.1575138419866562,0.15410813689231873,0.15112814307212827,0.1434653103351593,0.15027672052383423,0.14261387288570404,0.14687101542949677,0.13793103396892548,0.14048531651496887,0.13920816779136655,0.1370796114206314,0.12345679104328156,0.13154533505439758,0.13069391250610352,0.14048531651496887,0.13793103396892548,0.14005960524082184,0.1447424441576004,0.15027672052383423,0.15623669326305387,0.1549595594406128,0.15538527071475983,0.1638995260000229,0.16602809727191925,0.1745423525571823,0.1732652187347412,0.18305662274360657,0.16773094236850739,0.1707109361886978,0.17241379618644714,0.1758195012807846,0.18263091146945953,0.18773946166038513,0.2081736922264099,0.22349935770034793,0.2405278831720352,0.27373349666595453,0.28778204321861267,0.29246488213539124,0.2856534719467163,0.27075350284576416,0.24606215953826904,0.23925074934959412,0.22647935152053833,0.1783737689256668,0.1600681096315384,0.15155385434627533,0.15325669944286346,0.14687101542949677,0.15027672052383423,0.15368241071701047,0.11238825321197508,0.13282248377799988,0.22647935152053833,0.5968497395515442,1.0,0.8710089325904846,0.5321413278579712,0.29416772723197937,0.10046828538179396,0.0,0.0813111960887909,0.14261387288570404,0.13878245651721954,0.15283098816871643,0.16219668090343475,0.15708811581134796,0.16049382090568542,0.17028522491455078,0.17028522491455078,0.18433375656604767,0.18773946166038513,0.19965943694114685,0.20093657076358795,0.20561940968036652,0.20136228203773496,0.2132822424173355,0.2324393391609192,0.24776500463485715,0.0,0.0,0.0,0.0,0.0,0.0,0.0,0.0,0.0,0.0,0.0,0.0,0.0,0.0,0.0,0.0,0.0,0.0,0.0,0.0,0.0,0.0,0.0,0.0,0.0,0.0,0.0,0.0,0.0,0.0,0.0,0.0,0.0,0.0,0.0,0.0,0.0,0.0
1.0,0.811904788017273,0.2690476179122925,0.04563492164015769,0.05396825447678565,0.125,0.1269841343164444,0.11269841343164444,0.11190476268529892,0.11388888955116272,0.10952381044626236,0.1111111119389534,0.10952381044626236,0.10753968358039856,0.11865079402923584,0.12182539701461792,0.12460317462682724,0.13611111044883728,0.1408730149269104,0.1408730149269104,0.14126984775066376,0.15317460894584656,0.15158730745315552,0.15992063283920288,0.17182539403438568,0.18373015522956848,0.19960317015647888,0.2182539701461792,0.23928570747375488,0.2757936418056488,0.30912697315216064,0.33769840002059937,0.37063491344451904,0.4047619104385376,0.43888887763023376,0.4702380895614624,0.47857141494750977,0.4535714387893677,0.4035714268684387,0.3424603044986725,0.28531745076179504,0.23293650150299072,0.19365079700946808,0.16746032238006592,0.14920635521411896,0.13611111044883728,0.12579365074634552,0.1210317462682724,0.10833333432674408,0.11230158805847168,0.10952381044626236,0.10634920746088028,0.10833333432674408,0.10753968358039856,0.10873015969991684,0.11071428656578064,0.11071428656578064,0.11031746119260788,0.11071428656578064,0.10753968358039856,0.11190476268529892,0.11071428656578064,0.11071428656578064,0.1071428582072258,0.10198412835597992,0.10555555671453476,0.09603174775838853,0.09166666865348817,0.08968254178762435,0.08690476417541504,0.08611111342906952,0.07698412984609604,0.07777778059244156,0.07777778059244156,0.07500000298023224,0.075396828353405,0.07579365372657776,0.08015873283147812,0.07777778059244156,0.08769841492176056,0.1329365074634552,0.14642857015132904,0.13253968954086304,0.14166666567325592,0.1488095223903656,0.13531745970249176,0.11785714328289032,0.10753968358039856,0.09603174775838853,0.08611111342906952,0.06706349551677704,0.06150793656706809,0.06111111119389533,0.05912698432803153,0.05952380970120429,0.05873015895485877,0.06071428582072257,0.06825397163629532,0.0714285746216774,0.07777778059244156,0.08055555820465088,0.06468254327774048,0.0,0.05992063507437705,0.230158731341362,0.7035714387893677,1.0,0.7273809313774109,0.17380952835083008,0.025793651118874546,0.075396828353405,0.15119047462940216,0.13055555522441864,0.1289682537317276,0.12658730149269104,0.12420634925365448,0.12579365074634552,0.13333334028720856,0.13849206268787384,0.14404761791229248,0.14841270446777344,0.14642857015132904,0.14761905372142792,0.1547619104385376,0.16111111640930176,0.16507937014102936,0.1726190447807312,0.17539682984352112,0.0,0.0,0.0,0.0,0.0,0.0,0.0,0.0,0.0,0.0,0.0,0.0,0.0,0.0,0.0,0.0,0.0,0.0,0.0,0.0,0.0,0.0,0.0,0.0,0.0,0.0,0.0,0.0,0.0,0.0,0.0,0.0,0.0,0.0,0.0,0.0,0.0,0.0,0.0,0.0,0.0,0.0,0.0,0.0,0.0,0.0,0.0,0.0,0.0,0.0,0.0,0.0,0.0,0.0,0.0,0.0,0.0,0.0,0.0,0.0
0.9429486989974976,0.5910256505012512,0.13910256326198575,0.0,0.10000000149011612,0.1692307740449905,0.2089743614196777,0.2282051295042038,0.214102566242218,0.21987178921699524,0.21858973801136017,0.21666666865348816,0.25128206610679626,0.24358974397182465,0.2352564036846161,0.2551282048225403,0.24230769276618955,0.25064101815223694,0.25641027092933655,0.26730769872665405,0.2737179398536682,0.2878205180168152,0.29615384340286255,0.31987178325653076,0.33012819290161133,0.3769230842590332,0.4012820422649383,0.4205128252506256,0.4583333432674408,0.4705128073692322,0.4961538314819336,0.49358972907066345,0.5032051205635071,0.5076923370361328,0.46089744567871094,0.43589743971824646,0.39423078298568726,0.35641026496887207,0.321153849363327,0.31217947602272034,0.2993589639663696,0.26217949390411377,0.2750000059604645,0.25448718667030334,0.27243590354919434,0.2570512890815735,0.26923078298568726,0.27435898780822754,0.27243590354919434,0.26730769872665405,0.2756410241127014,0.25833332538604736,0.2826923131942749,0.28012821078300476,0.2884615361690521,0.28525641560554504,0.26153847575187683,0.2967948615550995,0.28012821078300476,0.28141024708747864,0.26025640964508057,0.2717948853969574,0.2532051205635071,0.26858973503112793,0.25448718667030334,0.26730769872665405,0.2551282048225403,0.25641027092933655,0.2532051205635071,0.25064101815223694,0.2442307621240616,0.2576923072338104,0.25448718667030334,0.2698718011379242,0.26538461446762085,0.2955128252506256,0.34294870495796204,0.3493589758872986,0.37948718667030334,0.339102566242218,0.34871795773506165,0.3653846085071564,0.28717949986457825,0.29487180709838867,0.28141024708747864,0.2429487109184265,0.2211538404226303,0.2461538463830948,0.21089743077754977,0.21730768680572507,0.22179487347602844,0.19807691872119904,0.1903846114873886,0.23846153914928436,0.2025641053915024,0.21858973801136017,0.1596153825521469,0.17115384340286255,0.3205128312110901,0.6096153855323792,0.7730769515037536,1.0,0.39487180113792414,0.013461538590490818,0.02756410278379917,0.11858974397182465,0.18333333730697632,0.2083333283662796,0.20769231021404264,0.21794871985912323,0.23782050609588623,0.2121794819831848,0.21666666865348816,0.24551281332969663,0.25448718667030334,0.2538461685180664,0.2538461685180664,0.25256410241127014,0.25064101815223694,0.25448718667030334,0.2769230902194977,0.0,0.0,0.0,0.0,0.0,0.0,0.0,0.0,0.0,0.0,0.0,0.0,0.0,0.0,0.0,0.0,0.0,0.0,0.0,0.0,0.0,0.0,0.0,0.0,0.0,0.0,0.0,0.0,0.0,0.0,0.0,0.0,0.0,0.0,0.0,0.0,0.0,0.0,0.0,0.0,0.0,0.0,0.0,0.0,0.0,0.0,0.0,0.0,0.0,0.0,0.0,0.0,0.0,0.0,0.0,0.0,0.0,0.0,0.0,0.0,0.0,0.0,0.0,0.0,0.0,0.0,0.0
0.960740327835083,0.5967470407485962,0.2865956127643585,0.17218171060085297,0.14638249576091766,0.1256309598684311,0.10095345228910446,0.1121705025434494,0.08076275885105133,0.08300616592168808,0.09927089512348176,0.07964105159044266,0.11890073120594025,0.10039259493350983,0.10263600945472716,0.11777902394533156,0.0970274806022644,0.12394840270280838,0.109366238117218,0.1076836809515953,0.12058328837156296,0.09983174502849579,0.1323611885309219,0.10263600945472716,0.11048794537782668,0.13404375314712524,0.13404375314712524,0.1828379184007645,0.16432978212833405,0.19966349005699155,0.22546270489692688,0.2394840121269226,0.30229949951171875,0.29500842094421387,0.31856420636177063,0.3337072432041168,0.32809871435165405,0.3230510354042053,0.29781267046928406,0.25238361954689026,0.22826696932315824,0.19742007553577423,0.2058328688144684,0.1626472175121307,0.1379697173833847,0.1424565315246582,0.1323611885309219,0.13292203843593595,0.12002243101596832,0.11721817404031752,0.13572630286216736,0.09871003776788712,0.13460460305213928,0.11441390961408617,0.11048794537782668,0.12507010996341705,0.1031968593597412,0.12675265967845917,0.1060011237859726,0.10656197369098663,0.12507010996341705,0.11160964518785477,0.13909141719341278,0.1289960741996765,0.11273135244846344,0.1256309598684311,0.10207515209913252,0.13180033862590787,0.1166573166847229,0.12507010996341705,0.1183398738503456,0.10207515209913252,0.1289960741996765,0.09983174502849579,0.09983174502849579,0.10263600945472716,0.09758833795785905,0.11441390961408617,0.10263600945472716,0.10375770926475524,0.1121705025434494,0.09478407353162764,0.10375770926475524,0.07403253018856049,0.08412787318229675,0.08861469477415085,0.07795849442481995,0.10095345228910446,0.08020190894603729,0.07403253018856049,0.08020190894603729,0.07459338009357452,0.09927089512348176,0.0863712877035141,0.08973640203475952,0.10151430219411849,0.08693213760852814,0.10712282359600069,0.07908020168542862,0.09197980910539628,0.10712282359600069,0.10151430219411849,0.1245092526078224,0.09366236627101898,0.10487941652536392,0.1256309598684311,0.11385305970907213,0.1245092526078224,0.09983174502849579,0.12058328837156296,0.1862030327320099,0.17666853964328763,0.21424564719200137,0.18395961821079257,0.19181154668331143,0.22378014028072357,0.18844643235206604,0.15928210318088531,0.1166573166847229,0.1121705025434494,0.07964105159044266,0.05664610117673874,0.06786315143108368,0.03982052579522133,0.044307347387075424,0.04374649375677109,0.023555804044008255,0.0,0.04767246171832085,0.3763320147991181,0.7711721658706666,1.0,0.7072349786758423,0.2955692708492279,0.17162086069583893,0.14638249576091766,0.09310151636600494,0.1060011237859726,0.1031968593597412,0.09758833795785905,0.10992708802223204,0.10824453085660934,0.13572630286216736,0.11329220235347748,0.11441390961408617,0.1228266954421997,0.10712282359600069,0.13684800267219543,0.11385305970907213,0.13853056728839874,0.1379697173833847,0.1289960741996765,0.1575995534658432,0.14638249576091766,0.14638249576091766,0.14806506037712097,0.14694336056709287,0.1817162036895752,0.17049916088581085,0.20246775448322296,0.0,0.0,0.0,0.0,0.0,0.0,0.0,0.0,0.0,0.0,0.0,0.0,0.0,0.0,0.0,0.0,0.0,0.0,0.0,0.0,0.0,0.0,0.0,0.0,0.0,0.0,0.0,0.0
1.0,0.7483598589897155,0.12371134012937544,0.004686035681515932,0.008903468027710915,0.061387065798044205,0.11574508249759674,0.13917525112628937,0.1396438628435135,0.13730084896087646,0.1419868767261505,0.14245548844337463,0.1476101279258728,0.14901593327522275,0.15089035034179688,0.15370196104049683,0.15979380905628204,0.15979380905628204,0.1611996293067932,0.16541706025600433,0.16635426878929138,0.17900656163692474,0.1827553957700729,0.18697282671928403,0.19821929931640625,0.20524835586547852,0.22071227431297305,0.22961574792861936,0.2450796663761139,0.2567947506904602,0.276476114988327,0.2952202558517456,0.30552953481674194,0.30927833914756775,0.30552953481674194,0.2928772270679474,0.2642924189567566,0.24367384612560272,0.22727273404598236,0.20852857828140256,0.19493907690048215,0.19306467473506927,0.18509840965270996,0.1822867840528488,0.18134957551956177,0.1822867840528488,0.1865042150020599,0.19212746620178223,0.1841612011194229,0.1827553957700729,0.1865042150020599,0.1818181872367859,0.1836925894021988,0.1935332715511322,0.18837863206863403,0.1855670064687729,0.1865042150020599,0.1841612011194229,0.18509840965270996,0.17900656163692474,0.186035618185997,0.18134957551956177,0.17666354775428772,0.17713214457035065,0.19493907690048215,0.20618556439876556,0.2357075959444046,0.24133083224296567,0.23758201301097867,0.2760075032711029,0.2797563374042511,0.279287725687027,0.2722586691379547,0.2432052493095398,0.21790064871311188,0.20618556439876556,0.16213683784008026,0.1396438628435135,0.1382380574941635,0.14479850232601163,0.126522958278656,0.12792877852916715,0.12699156999588013,0.12886597216129303,0.1302717924118042,0.0843486413359642,0.1836925894021988,0.45688846707344055,0.7511715292930603,0.9442361593246461,0.937675714492798,0.28678539395332336,0.023898782208561897,0.0,0.05248359963297844,0.09793814271688461,0.1513589471578598,0.14620430767536163,0.15417057275772095,0.155107781291008,0.1626054346561432,0.16588565707206726,0.1611996293067932,0.16166822612285614,0.18134957551956177,0.17666354775428772,0.17947515845298767,0.17478913068771362,0.18462979793548584,0.19775070250034332,0.1865042150020599,0.1996251195669174,0.2047797590494156,0.218369260430336,0.2286785393953323,0.23711340129375455,0.0,0.0,0.0,0.0,0.0,0.0,0.0,0.0,0.0,0.0,0.0,0.0,0.0,0.0,0.0,0.0,0.0,0.0,0.0,0.0,0.0,0.0,0.0,0.0,0.0,0.0,0.0,0.0,0.0,0.0,0.0,0.0,0.0,0.0,0.0,0.0,0.0,0.0,0.0,0.0,0.0,0.0,0.0,0.0,0.0,0.0,0.0,0.0,0.0,0.0,0.0,0.0,0.0,0.0,0.0,0.0,0.0,0.0,0.0,0.0,0.0,0.0,0.0,0.0,0.0,0.0,0.0,0.0,0.0,0.0,0.0,0.0
0.9848617911338806,0.718078076839447,0.4295743703842163,0.19986836612224576,0.14940764009952545,0.1803422570228577,0.1873628795146942,0.1820974051952362,0.17749013006687164,0.1845107525587082,0.18648530542850497,0.18494953215122223,0.19065380096435544,0.19548048079013824,0.20140412449836728,0.2053532302379608,0.2068889886140823,0.2125932425260544,0.2178587168455124,0.22641509771347043,0.23672664165496823,0.2463799864053726,0.2599824368953705,0.2731461226940155,0.2893812954425812,0.3038613498210907,0.3157086372375488,0.3279947340488434,0.33677050471305847,0.34313294291496277,0.3477402329444885,0.3477402329444885,0.33633172512054443,0.3124177157878876,0.2847740352153778,0.25932425260543823,0.23497147858142853,0.21412900090217593,0.20184291899204257,0.19131198525428772,0.18670469522476196,0.18626590073108673,0.18670469522476196,0.18363317847251892,0.18297499418258664,0.18692408502101895,0.18845984339714048,0.18670469522476196,0.18648530542850497,0.18692408502101895,0.19021500647068024,0.19262833893299103,0.19284774363040924,0.192408949136734,0.192408949136734,0.19591926038265228,0.19613865017890927,0.19548048079013824,0.1956998705863953,0.19789381325244904,0.19635805487632751,0.19218955934047696,0.1915313750505447,0.18824045360088348,0.18824045360088348,0.18670469522476196,0.1847301423549652,0.18253619968891144,0.1834137737751007,0.18560771644115448,0.18363317847251892,0.1860465109348297,0.19262833893299103,0.20645019412040713,0.21412900090217593,0.22334356606006625,0.21961386501789093,0.22860904037952423,0.24528302252292633,0.25296181440353394,0.24045634269714355,0.23233874142169952,0.197674423456192,0.1818780153989792,0.17463800311088562,0.17025010287761688,0.16849495470523834,0.17046950757503507,0.16871434450149536,0.1728828400373459,0.16564282774925232,0.16630101203918457,0.16695919632911682,0.16564282774925232,0.1667397916316986,0.13799911737442017,0.0,0.07525230199098587,0.33391839265823364,0.7014041543006897,1.0,0.6531373262405396,0.40083369612693787,0.1935059279203415,0.17376041412353516,0.20645019412040713,0.21215444803237915,0.20930232107639313,0.21149626374244687,0.20974111557006836,0.21237385272979736,0.21566475927829745,0.21741992235183716,0.21983325481414792,0.22860904037952423,0.23014479875564575,0.2384817898273468,0.24177271127700803,0.24923211336135864,0.25427818298339844,0.2650285065174103,0.2742430865764618,0.0,0.0,0.0,0.0,0.0,0.0,0.0,0.0,0.0,0.0,0.0,0.0,0.0,0.0,0.0,0.0,0.0,0.0,0.0,0.0,0.0,0.0,0.0,0.0,0.0,0.0,0.0,0.0,0.0,0.0,0.0,0.0,0.0,0.0,0.0,0.0,0.0,0.0,0.0,0.0,0.0,0.0,0.0,0.0,0.0,0.0,0.0,0.0,0.0,0.0,0.0,0.0,0.0,0.0,0.0,0.0,0.0,0.0,0.0,0.0,0.0,0.0,0.0,0.0,0.0,0.0
0.9142857193946838,0.9222857356071472,0.5908571481704712,0.14971429109573364,0.0,0.23600000143051147,0.32171428203582764,0.38685715198516846,0.41428571939468384,0.4337143003940582,0.4451428651809692,0.4542857110500336,0.4617142975330353,0.45942857861518854,0.46799999475479126,0.4628571569919586,0.4714285731315613,0.4611428678035736,0.45657142996788025,0.4714285731315613,0.47028571367263794,0.46799999475479126,0.4657142758369446,0.4600000083446502,0.47600001096725464,0.47600001096725464,0.4737142920494079,0.4708571434020996,0.4737142920494079,0.4811428487300873,0.478285700082779,0.47999998927116394,0.48285713791847235,0.48571428656578064,0.48857143521308893,0.486857146024704,0.4925714433193206,0.50342857837677,0.5142857432365417,0.5297142863273621,0.5428571701049805,0.5485714077949524,0.545714259147644,0.526285707950592,0.5131428837776184,0.48800000548362726,0.4697142839431762,0.44914284348487854,0.4451428651809692,0.43885713815689087,0.4314285814762115,0.42114284634590143,0.42114284634590143,0.43771427869796753,0.42914286255836487,0.42971429228782654,0.43028572201728815,0.4411428570747375,0.44342857599258423,0.4445714354515075,0.44685715436935425,0.4560000002384186,0.45542857050895685,0.44342857599258423,0.4405714273452758,0.4382857084274292,0.4417142868041992,0.4257142841815949,0.4251428544521332,0.42685714364051813,0.42742857336997986,0.4228571355342865,0.4160000085830688,0.4091428518295288,0.41657143831253046,0.40742856264114374,0.40857142210006714,0.41428571939468384,0.4057142734527588,0.4171428680419922,0.41771429777145386,0.4131428599357605,0.42114284634590143,0.41657143831253046,0.4194285571575165,0.4245714247226715,0.42800000309944153,0.4314285814762115,0.42399999499320984,0.42971429228782654,0.4308571517467498,0.42399999499320984,0.43028572201728815,0.43314287066459656,0.43714284896850586,0.4337143003940582,0.43599998950958246,0.4314285814762115,0.43771427869796753,0.4440000057220459,0.4382857084274292,0.4588571488857269,0.4839999973773956,0.4937142729759216,0.48514285683631897,0.4942857027053833,0.468571424484253,0.4657142758369446,0.4674285650253296,0.45828571915626526,0.4480000138282776,0.43314287066459656,0.4440000057220459,0.4245714247226715,0.40457141399383545,0.4068571329116821,0.41142857074737554,0.4148571491241455,0.41371428966522217,0.4154285788536072,0.42399999499320984,0.42628571391105646,0.4222857058048248,0.39142856001853943,0.4097142815589905,0.5920000076293945,0.9074285626411437,1.0,0.87714284658432,0.35199999809265137,0.03142857179045677,0.18799999356269836,0.33142855763435364,0.40457141399383545,0.46514284610748285,0.4811428487300873,0.47542858123779297,0.49085715413093567,0.4971428513526917,0.49942857027053833,0.49657142162323,0.505142867565155,0.50685715675354,0.5062857270240784,0.5097143054008484,0.5142857432365417,0.50685715675354,0.5137143135070801,0.5120000243186951,0.5171428322792053,0.5154285430908203,0.522857129573822,0.526285707950592,0.527999997138977,0.5320000052452087,0.5331428647041321,0.0,0.0,0.0,0.0,0.0,0.0,0.0,0.0,0.0,0.0,0.0,0.0,0.0,0.0,0.0,0.0,0.0,0.0,0.0,0.0,0.0,0.0,0.0,0.0,0.0,0.0,0.0,0.0,0.0,0.0,0.0,0.0
1.0,0.8197839856147766,0.3746446967124939,0.08811824768781662,0.06367254257202148,0.040363844484090805,0.0278567373752594,0.02046617306768894,0.009096077643334864,0.009664582088589668,0.01591813564300537,0.01819215528666973,0.021603183820843697,0.028993746265769005,0.03411028906702995,0.03979533910751342,0.04320636764168739,0.0557134747505188,0.06026151403784752,0.06765207648277283,0.0784536674618721,0.09039226919412613,0.10062535852193832,0.11370096355676652,0.12507106363773343,0.14042069017887115,0.1597498506307602,0.18305855989456177,0.208072766661644,0.23592950403690335,0.26151221990585327,0.27970439195632935,0.29960206151008606,0.3138146698474884,0.3166571855545044,0.3013075590133667,0.26662877202033997,0.23422399163246152,0.1870380938053131,0.15633882582187653,0.1290505975484848,0.11540648341178894,0.10687890648841857,0.09948834776878357,0.0960773155093193,0.09039226919412613,0.08811824768781662,0.09209778159856796,0.10005684942007063,0.0960773155093193,0.09209778159856796,0.09209778159856796,0.1011938601732254,0.1011938601732254,0.10744741559028624,0.10062535852193832,0.09778282791376113,0.09550881385803223,0.0960773155093193,0.09494030475616456,0.09039226919412613,0.09550881385803223,0.0983513370156288,0.09494030475616456,0.07959067821502684,0.07561114430427553,0.07617964595556259,0.0710631012916565,0.06935758888721466,0.06935758888721466,0.07674815505743027,0.07390563189983368,0.06424104422330856,0.06537805497646332,0.06537805497646332,0.06424104422330856,0.09778282791376113,0.12450256198644638,0.14098919928073883,0.15747584402561188,0.1819215416908264,0.18988060951232913,0.20693576335906985,0.23251847922801971,0.2097782790660858,0.14553724229335785,0.09380329400300981,0.056281980127096176,0.04377487301826477,0.03922683373093605,0.03638431057333946,0.024445706978440285,0.01591813564300537,0.027288231998682026,0.033541783690452576,0.019329164177179337,0.01023308653384447,0.009096077643334864,0.01819215528666973,0.0,0.009664582088589668,0.2268334329128265,0.7498579025268555,0.9494030475616456,0.6696987152099609,0.2427515685558319,0.1011938601732254,0.09323479235172272,0.05798749253153801,0.0608300156891346,0.05457646399736405,0.04377487301826477,0.03013075701892376,0.0329732820391655,0.056850481778383255,0.05343945324420929,0.0505969300866127,0.04889141395688057,0.06765207648277283,0.06765207648277283,0.06765207648277283,0.06878908723592758,0.08811824768781662,0.0,0.0,0.0,0.0,0.0,0.0,0.0,0.0,0.0,0.0,0.0,0.0,0.0,0.0,0.0,0.0,0.0,0.0,0.0,0.0,0.0,0.0,0.0,0.0,0.0,0.0,0.0,0.0,0.0,0.0,0.0,0.0,0.0,0.0,0.0,0.0,0.0,0.0,0.0,0.0,0.0,0.0,0.0,0.0,0.0,0.0,0.0,0.0,0.0,0.0,0.0,0.0,0.0,0.0,0.0,0.0,0.0,0.0,0.0,0.0,0.0,0.0,0.0,0.0,0.0
0.9776161313056944,0.39395636320114136,0.0738668143749237,0.0,0.11191941797733305,0.19697818160057068,0.21096810698509216,0.21656407415866852,0.22216004133224487,0.22271963953971863,0.2316731959581375,0.23223279416561127,0.23391158878803253,0.24286513030529025,0.2417459487915039,0.24510352313518524,0.2529378831386566,0.25853386521339417,0.26748740673065186,0.2747621834278106,0.28147733211517334,0.29882484674453735,0.3083379864692688,0.32512590289115906,0.34415221214294434,0.35926133394241333,0.3721320629119873,0.3805260360240936,0.3905987739562988,0.39843311905860895,0.39395636320114136,0.3933967649936676,0.37828764319419855,0.3788472414016723,0.35926133394241333,0.3480693995952606,0.33631783723831177,0.31617236137390137,0.30889758467674255,0.2960268557071686,0.2904309034347534,0.28987130522727966,0.28259652853012085,0.2853945195674896,0.28147733211517334,0.2820369303226471,0.2848349213600158,0.2848349213600158,0.29266926646232605,0.2932288646697998,0.2960268557071686,0.3060995936393738,0.30162283778190613,0.3133743703365326,0.3167319595813751,0.3212087154388428,0.32792389392852783,0.32008954882621765,0.32176831364631653,0.3234471082687378,0.34415221214294434,0.38108560442924494,0.3743704557418823,0.3945159614086151,0.42025741934776306,0.45551201701164246,0.4734191298484802,0.4208170175552368,0.4034695029258728,0.33799663186073303,0.3083379864692688,0.29994404315948486,0.2842753231525421,0.2742025852203369,0.26860660314559937,0.2669278085231781,0.26748740673065186,0.25853386521339417,0.2618914246559143,0.2596530616283417,0.26245102286338806,0.29882484674453735,0.42417460680007935,0.4722999334335327,0.6446558237075806,1.0,0.5506435632705688,0.18074986338615415,0.04196978360414505,0.12311135977506636,0.22271963953971863,0.2607722580432892,0.24958030879497528,0.2506994903087616,0.2618914246559143,0.2708449959754944,0.2792389392852783,0.2781197428703308,0.2881925106048584,0.2921096682548523,0.2954672574996948,0.2943480610847473,0.0,0.0,0.0,0.0,0.0,0.0,0.0,0.0,0.0,0.0,0.0,0.0,0.0,0.0,0.0,0.0,0.0,0.0,0.0,0.0,0.0,0.0,0.0,0.0,0.0,0.0,0.0,0.0,0.0,0.0,0.0,0.0,0.0,0.0,0.0,0.0,0.0,0.0,0.0,0.0,0.0,0.0,0.0,0.0,0.0,0.0,0.0,0.0,0.0,0.0,0.0,0.0,0.0,0.0,0.0,0.0,0.0,0.0,0.0,0.0,0.0,0.0,0.0,0.0,0.0,0.0,0.0,0.0,0.0,0.0,0.0,0.0,0.0,0.0,0.0,0.0,0.0,0.0,0.0,0.0,0.0,0.0,0.0,0.0,0.0,0.0
1.0,0.6241135001182556,0.3714539110660553,0.05097517743706703,0.12278369069099426,0.22074468433856964,0.31471630930900574,0.32535460591316223,0.3151595890522003,0.33909574151039124,0.3333333432674408,0.3559397161006927,0.35195034742355347,0.3444148898124695,0.3648049533367157,0.3603723347187042,0.375,0.3714539110660553,0.37012410163879395,0.3847517669200898,0.37455675005912786,0.3847517669200898,0.3758865296840668,0.36968085169792175,0.39627659320831293,0.394946813583374,0.417553186416626,0.431294322013855,0.43617022037506104,0.4410460889339447,0.414893627166748,0.4015957415103912,0.3789893686771393,0.355053186416626,0.35283687710762024,0.32491135597229004,0.3235815465450287,0.320035457611084,0.30053192377090454,0.3266843855381012,0.31072694063186646,0.32446807622909546,0.32757091522216797,0.306294322013855,0.32890069484710693,0.3430851101875305,0.3510638177394867,0.375,0.3922872245311737,0.4166666567325592,0.43794324994087214,0.45700353384017944,0.4565602838993073,0.4601063728332519,0.4601063728332519,0.41799646615982056,0.3931737542152405,0.347517728805542,0.31117022037506104,0.31028369069099426,0.2845744788646698,0.28679078817367554,0.2881205677986145,0.2708333432674408,0.28679078817367554,0.26551419496536255,0.27570921182632446,0.2703900635242462,0.263741135597229,0.3470744788646698,0.591312050819397,0.9867021441459656,0.7526595592498779,0.4375,0.19636525213718417,0.0,0.13741134107112885,0.23891843855381012,0.2734929025173187,0.2992021143436432,0.2992021143436432,0.3169326186180115,0.32845744490623474,0.31781914830207825,0.33421987295150757,0.0,0.0,0.0,0.0,0.0,0.0,0.0,0.0,0.0,0.0,0.0,0.0,0.0,0.0,0.0,0.0,0.0,0.0,0.0,0.0,0.0,0.0,0.0,0.0,0.0,0.0,0.0,0.0,0.0,0.0,0.0,0.0,0.0,0.0,0.0,0.0,0.0,0.0,0.0,0.0,0.0,0.0,0.0,0.0,0.0,0.0,0.0,0.0,0.0,0.0,0.0,0.0,0.0,0.0,0.0,0.0,0.0,0.0,0.0,0.0,0.0,0.0,0.0,0.0,0.0,0.0,0.0,0.0,0.0,0.0,0.0,0.0,0.0,0.0,0.0,0.0,0.0,0.0,0.0,0.0,0.0,0.0,0.0,0.0,0.0,0.0,0.0,0.0,0.0,0.0,0.0,0.0,0.0,0.0,0.0,0.0,0.0,0.0,0.0,0.0,0.0,0.0,0.0
0.9650375843048096,0.8921052813529968,0.5796992778778076,0.36127820611000067,0.19360902905464172,0.11428571492433548,0.07443609088659286,0.05864661559462547,0.053007517009973526,0.04210526496171951,0.043609023094177246,0.03947368264198303,0.048120301216840744,0.043233081698417664,0.050751879811286926,0.06165413558483124,0.061278194189071655,0.05864661559462547,0.07180450856685638,0.07669173181056976,0.0849624052643776,0.09887217730283736,0.10375940054655076,0.11466165632009506,0.1248120293021202,0.13872180879116058,0.16203007102012634,0.18157894909381864,0.21654134988784793,0.23984962701797485,0.2703007459640503,0.30488720536231995,0.32255637645721436,0.34699249267578125,0.3477443754673004,0.3417293131351471,0.3154135346412658,0.2654135227203369,0.22857142984867096,0.19060149788856504,0.16353383660316467,0.129699245095253,0.1071428582072258,0.10563910007476807,0.09360902011394501,0.10112781822681428,0.10300751775503159,0.09548871964216232,0.09736841917037965,0.09924811869859695,0.0981203019618988,0.10375940054655076,0.09849624335765839,0.09398496150970459,0.09097744524478912,0.10300751775503159,0.09548871964216232,0.08796992152929306,0.09097744524478912,0.08947368711233139,0.09248120337724684,0.08533834666013719,0.08684210479259491,0.07706766575574875,0.0759398490190506,0.07669173181056976,0.07406014949083328,0.0759398490190506,0.06879699230194092,0.06203007698059081,0.06654135137796402,0.07218044996261597,0.06390977650880814,0.06578947603702545,0.07481203228235245,0.07330827414989471,0.07030075043439865,0.06541353464126587,0.07443609088659286,0.06766917556524277,0.07067669183015823,0.07180450856685638,0.06954887509346008,0.07180450856685638,0.0714285746216774,0.07105263322591782,0.06766917556524277,0.07669173181056976,0.08909774571657181,0.10639097541570663,0.12255638837814332,0.12293232977390288,0.15263158082962036,0.18421052396297455,0.1763157844543457,0.1654135286808014,0.14812029898166656,0.129699245095253,0.13947369158267975,0.10338345915079115,0.09060150384902954,0.06804510951042175,0.05112782120704651,0.04661654308438301,0.050375938415527344,0.0533834584057331,0.03834586590528488,0.0,0.09248120337724684,0.27781954407691956,0.7345864772796631,0.9781954884529112,1.0,0.856766939163208,0.5349624156951904,0.3015037477016449,0.19248120486736295,0.13233081996440887,0.10827067494392396,0.09436090290546416,0.0849624052643776,0.07406014949083328,0.07330827414989471,0.07781954854726791,0.08157894760370255,0.08571428805589675,0.08233083039522171,0.08796992152929306,0.09172932058572768,0.0958646610379219,0.10187970101833344,0.1048872172832489,0.11015037447214127,0.12105263024568556,0.1364661604166031,0.14962406456470487,0.16428571939468384,0.1763157844543457,0.0,0.0,0.0,0.0,0.0,0.0,0.0,0.0,0.0,0.0,0.0,0.0,0.0,0.0,0.0,0.0,0.0,0.0,0.0,0.0,0.0,0.0,0.0,0.0,0.0,0.0,0.0,0.0,0.0,0.0,0.0,0.0,0.0,0.0,0.0,0.0,0.0,0.0,0.0,0.0,0.0,0.0,0.0,0.0,0.0,0.0,0.0,0.0,0.0,0.0
1.0,0.8009656667709351,0.3857296109199524,0.1201716735959053,0.1067596599459648,0.07939913868904114,0.06866952776908875,0.06223176047205925,0.05525751039385795,0.054721031337976456,0.05311158671975136,0.05954935774207115,0.057403434067964554,0.05418454855680466,0.05847639590501785,0.07027897238731384,0.08208154141902924,0.08422746509313583,0.08959227800369263,0.09173819422721863,0.09549356251955032,0.1056866943836212,0.1158798262476921,0.13197425007820127,0.14431330561637878,0.16469956934452057,0.18884120881557465,0.20922747254371643,0.22746780514717105,0.2537553608417511,0.2714592218399048,0.28487125039100647,0.29989269375801086,0.31276825070381165,0.31759655475616455,0.29989269375801086,0.2564377784729004,0.22693133354187012,0.19152361154556272,0.15504291653633115,0.123927041888237,0.112124465405941,0.09710300713777542,0.09603004157543182,0.100321888923645,0.08851931244134903,0.07457081228494644,0.07564377784729003,0.08315450698137283,0.09012875705957413,0.09120171517133711,0.07993562519550323,0.07939913868904114,0.08959227800369263,0.09656652063131332,0.09603004157543182,0.09120171517133711,0.09120171517133711,0.09442060440778732,0.09603004157543182,0.09817596524953842,0.09334763884544373,0.08047210425138474,0.07564377784729003,0.07939913868904114,0.08100858330726624,0.07618025690317154,0.06759656965732574,0.07188840955495834,0.06545064598321915,0.06062231585383415,0.06384120136499405,0.06330472230911255,0.056866951286792755,0.04989270493388176,0.06169527769088745,0.08637338876724243,0.1110514998435974,0.1228540763258934,0.12982831895351407,0.15021459758281708,0.17328326404094696,0.17864806950092316,0.19313304126262665,0.19366952776908872,0.14753219485282895,0.09495708346366881,0.05257510766386986,0.043454933911561966,0.03433476388454437,0.020922746509313583,0.008047210052609444,0.008047210052609444,0.016094420105218887,0.010729613713920116,0.005364806856960058,0.015557940118014812,0.009656652808189392,0.004291845485568047,0.0021459227427840233,0.0,0.07296137511730194,0.42489269375801086,0.9163089990615845,0.7789699435234071,0.4093347787857056,0.1207081526517868,0.08422746509313583,0.060085836797952645,0.04184549301862717,0.03862661123275757,0.04184549301862717,0.031652361154556274,0.028433475643396378,0.03433476388454437,0.05203862488269806,0.042918454855680466,0.02628755383193493,0.04023605212569237,0.06169527769088745,0.06384120136499405,0.06652360409498215,0.07027897238731384,0.0,0.0,0.0,0.0,0.0,0.0,0.0,0.0,0.0,0.0,0.0,0.0,0.0,0.0,0.0,0.0,0.0,0.0,0.0,0.0,0.0,0.0,0.0,0.0,0.0,0.0,0.0,0.0,0.0,0.0,0.0,0.0,0.0,0.0,0.0,0.0,0.0,0.0,0.0,0.0,0.0,0.0,0.0,0.0,0.0,0.0,0.0,0.0,0.0,0.0,0.0,0.0,0.0,0.0,0.0,0.0,0.0,0.0,0.0,0.0,0.0,0.0,0.0,0.0,0.0
1.0,0.6448717713356018,0.30897435545921326,0.07628205418586731,0.03333333507180214,0.23589743673801425,0.28333333134651184,0.2935897409915924,0.31794872879981995,0.33012819290161133,0.3474358916282654,0.35256409645080566,0.35641026496887207,0.35448718070983887,0.35961538553237915,0.37051281332969666,0.37628206610679626,0.3865384757518768,0.37564101815223694,0.39743590354919434,0.41153845191001887,0.4294871687889099,0.4570512771606446,0.4846153855323791,0.5147435665130615,0.5442307591438293,0.5788461565971375,0.607692301273346,0.6282051205635071,0.6435897350311279,0.6576923131942749,0.6666666865348816,0.6493589878082275,0.5948718190193176,0.5416666865348816,0.4903846085071564,0.4423076808452606,0.4051282107830048,0.37371793389320374,0.3480769097805023,0.34166666865348816,0.3294871747493744,0.32307693362236023,0.31987178325653076,0.32307693362236023,0.3115384578704834,0.31217947602272034,0.3243589699268341,0.30897435545921326,0.31602564454078674,0.3134615421295166,0.31217947602272034,0.3153846263885498,0.3025641143321991,0.3134615421295166,0.3064102530479431,0.3166666626930237,0.31410256028175354,0.30512821674346924,0.3115384578704834,0.30128204822540283,0.3064102530479431,0.2974359095096588,0.30192306637763977,0.303846150636673,0.2967948615550995,0.2967948615550995,0.30128204822540283,0.29487180709838867,0.28910255432128906,0.2993589639663696,0.28910255432128906,0.2737179398536682,0.2878205180168152,0.2865384519100189,0.2794871926307678,0.27820512652397156,0.28012821078300476,0.2897436022758484,0.28333333134651184,0.28205129504203796,0.2839743494987488,0.27820512652397156,0.27628204226493835,0.2846153974533081,0.2737179398536682,0.2730769217014313,0.27820512652397156,0.2794871926307678,0.2794871926307678,0.2846153974533081,0.27820512652397156,0.30192306637763977,0.32371795177459717,0.35641026496887207,0.36987179517745966,0.4096153974533081,0.4173077046871186,0.4057692289352417,0.3807692229747772,0.4173077046871186,0.3673076927661896,0.33076924085617065,0.2846153974533081,0.27115383744239807,0.2737179398536682,0.2775641083717346,0.26730769872665405,0.26538461446762085,0.2775641083717346,0.2717948853969574,0.28141024708747864,0.2826923131942749,0.4076923131942749,0.4333333373069763,0.5480769276618958,0.9134615659713744,0.9185897707939149,0.42692306637763977,0.19743590056896207,0.0,0.07820513099431992,0.23910255730152127,0.2628205120563507,0.28205129504203796,0.2974359095096588,0.3096153736114502,0.3064102530479431,0.32179486751556396,0.0,0.0,0.0,0.0,0.0,0.0,0.0,0.0,0.0,0.0,0.0,0.0,0.0,0.0,0.0,0.0,0.0,0.0,0.0,0.0,0.0,0.0,0.0,0.0,0.0,0.0,0.0,0.0,0.0,0.0,0.0,0.0,0.0,0.0,0.0,0.0,0.0,0.0,0.0,0.0,0.0,0.0,0.0,0.0,0.0,0.0,0.0,0.0,0.0,0.0,0.0,0.0,0.0,0.0,0.0,0.0,0.0,0.0,0.0
0.9773349165916443,0.5521687865257263,0.10003907978534698,0.01289566233754158,0.07073075324296951,0.1234857365489006,0.10550996661186218,0.09691285341978072,0.09769441187381744,0.0953497439622879,0.09456819295883179,0.09730363637208939,0.093395859003067,0.09495896846055984,0.09652207791805269,0.09652207791805269,0.09847597032785416,0.10355607420206069,0.10550996661186218,0.11332552134990692,0.11684251576662064,0.12192262709140776,0.12934739887714383,0.13833528757095337,0.1531848311424255,0.1625635027885437,0.18366549909114835,0.20359516143798828,0.23212192952632904,0.26221179962158203,0.2930832505226135,0.32200077176094055,0.3614693284034729,0.39703008532524114,0.4259476363658905,0.44118797779083246,0.4294646382331848,0.38452520966529846,0.3270809054374695,0.2661195695400238,0.21375536918640137,0.1645173877477646,0.1316920667886734,0.11332552134990692,0.09417741000652312,0.08636186271905899,0.07932785898447037,0.07229386270046234,0.0734661966562271,0.07659241557121277,0.08089097589254379,0.07971864193677902,0.07854630798101425,0.08167252689599991,0.07932785898447037,0.07659241557121277,0.07698319852352142,0.07854630798101425,0.08245408535003662,0.08440797030925751,0.08753419667482376,0.09105119109153749,0.08753419667482376,0.08831574767827988,0.08753419667482376,0.0926143005490303,0.09105119109153749,0.08909730613231659,0.09222352504730225,0.09222352504730225,0.08518952876329422,0.08675263822078703,0.08440797030925751,0.0898788571357727,0.0871434137225151,0.0871434137225151,0.08167252689599991,0.07698319852352142,0.0781555324792862,0.07463853061199188,0.07073075324296951,0.0754200890660286,0.0699492022395134,0.06525986641645432,0.06330598145723343,0.06565064191818237,0.06486909091472626,0.08323563635349274,0.11645174026489256,0.12270417809486388,0.13286440074443817,0.13833528757095337,0.14107072353363037,0.13481828570365903,0.11996873468160628,0.10394685715436935,0.1008206307888031,0.0926143005490303,0.07776474952697754,0.06486909091472626,0.05197342857718468,0.05275498330593109,0.05275498330593109,0.05119187012314797,0.04689331725239754,0.05197342857718468,0.05705353617668152,0.05861664563417435,0.05431809276342392,0.05783509090542793,0.0480656512081623,0.0062524424865841866,0.0,0.16959749162197113,0.5306760668754578,1.0,0.8632278442382812,0.2661195695400238,0.021101992577314377,0.04650254175066948,0.11645174026489256,0.10902696102857588,0.10590074211359024,0.10629151761531828,0.10199296474456788,0.1016021892428398,0.10199296474456788,0.09925752133131029,0.10394685715436935,0.10511918365955351,0.10550996661186218,0.10824541002511978,0.11215318739414216,0.11449784785509108,0.0,0.0,0.0,0.0,0.0,0.0,0.0,0.0,0.0,0.0,0.0,0.0,0.0,0.0,0.0,0.0,0.0,0.0,0.0,0.0,0.0,0.0,0.0,0.0,0.0,0.0,0.0,0.0,0.0,0.0,0.0,0.0,0.0,0.0,0.0,0.0,0.0,0.0,0.0,0.0,0.0,0.0,0.0,0.0,0.0,0.0,0.0,0.0,0.0,0.0,0.0,0.0,0.0,0.0
0.9193163514137267,0.8608903288841248,0.5151033401489258,0.21303656697273257,0.05723370611667633,0.0,0.0771065205335617,0.12042925506830215,0.12480127066373824,0.12519872188568115,0.1347376853227615,0.1339427679777145,0.14546899497509003,0.14705882966518402,0.1565977782011032,0.1669316440820694,0.171701118350029,0.18163752555847168,0.1764705926179886,0.1748807579278946,0.1752782166004181,0.18521462380886075,0.19236883521080017,0.20667727291584015,0.22257551550865173,0.2503974437713623,0.2591415047645569,0.2678855359554291,0.28974562883377075,0.31001588702201843,0.3302861750125885,0.3473767936229706,0.3541335463523865,0.3461844325065613,0.3521462678909302,0.3545309901237488,0.3358505666255951,0.30484896898269653,0.27702704071998596,0.2627185881137848,0.236486479640007,0.2193958610296249,0.20866455137729645,0.18362480401992795,0.17845787107944489,0.1764705926179886,0.18282988667488095,0.1804451495409012,0.18402226269245148,0.18998409807682037,0.18759936094284055,0.18839427828788757,0.18640699982643127,0.18402226269245148,0.18799681961536407,0.19117647409439087,0.19554848968982697,0.19515103101730344,0.20747217535972595,0.20866455137729645,0.20270270109176636,0.20627981424331665,0.20349761843681335,0.21065182983875272,0.20349761843681335,0.19515103101730344,0.19356121122837064,0.18998409807682037,0.19038155674934387,0.18362480401992795,0.18481716513633728,0.18481716513633728,0.19157393276691437,0.18958663940429688,0.18998409807682037,0.19554848968982697,0.20190778374671936,0.20111288130283356,0.18362480401992795,0.18640699982643127,0.18998409807682037,0.19117647409439087,0.19316375255584717,0.19197137653827667,0.19554848968982697,0.19912560284137723,0.20786963403224945,0.21144674718379977,0.20389507710933685,0.19117647409439087,0.19356121122837064,0.19515103101730344,0.19117647409439087,0.19872814416885376,0.20588235557079315,0.20826709270477295,0.20707471668720245,0.21581876277923584,0.20985691249370575,0.20667727291584015,0.20389507710933685,0.20151033997535703,0.19475357234477997,0.19157393276691437,0.19236883521080017,0.20826709270477295,0.22893482446670532,0.2400635927915573,0.2535771131515503,0.27980920672416687,0.29848966002464294,0.30325913429260254,0.30484896898269653,0.28020668029785156,0.2678855359554291,0.2571542263031006,0.2484101802110672,0.20548489689826965,0.18521462380886075,0.1804451495409012,0.1804451495409012,0.17925278842449188,0.17885532975196838,0.1796502321958542,0.15540540218353271,0.18402226269245148,0.27265501022338867,0.6422893404960632,1.0,0.9220985770225525,0.5548489689826965,0.28775835037231445,0.12281399220228197,0.05604133382439613,0.12957075238227844,0.182034969329834,0.1780604124069214,0.18084260821342468,0.18600954115390775,0.20111288130283356,0.20230524241924283,0.21065182983875272,0.2186009585857391,0.22297297418117523,0.23529411852359772,0.2416534125804901,0.250794917345047,0.2420508712530136,0.2503974437713623,0.2643084228038788,0.27941176295280457,0.29133546352386475,0.30445152521133423,0.0,0.0,0.0,0.0,0.0,0.0,0.0,0.0,0.0,0.0,0.0,0.0,0.0,0.0,0.0,0.0,0.0,0.0,0.0,0.0,0.0,0.0,0.0,0.0,0.0,0.0,0.0,0.0,0.0,0.0,0.0,0.0,0.0,0.0,0.0
0.9821268916130066,0.4204646944999694,0.10053618997335433,0.0,0.12779267132282257,0.22520107030868527,0.27122431993484497,0.28731009364128113,0.29088473320007324,0.29937443137168884,0.3047363758087158,0.3033958971500397,0.30607685446739197,0.3127792775630951,0.3096514642238617,0.31099194288253784,0.31724753975868225,0.32663092017173767,0.33467382192611694,0.35835567116737366,0.3655049204826355,0.3771224319934845,0.3941018879413605,0.4066130518913269,0.4262734651565552,0.4495084881782532,0.47542449831962585,0.5058087706565857,0.5352993607521057,0.5688114166259766,0.595174252986908,0.609919548034668,0.6237712502479553,0.6206434369087219,0.6076854467391968,0.5759606957435608,0.5277032852172852,0.4789991080760956,0.43699732422828674,0.4025915861129761,0.3766756057739258,0.3570151925086975,0.3391420841217041,0.3297587037086487,0.31411975622177124,0.3154602348804474,0.31724753975868225,0.3163538873195648,0.3159070611000061,0.309204638004303,0.3159070611000061,0.3252904415130615,0.3217158317565918,0.3185880184173584,0.31992849707603455,0.3226094841957092,0.3159070611000061,0.31724753975868225,0.3136729300022125,0.32037532329559326,0.3239499628543854,0.3212689757347107,0.3185880184173584,0.3190348446369171,0.3239499628543854,0.320822149515152,0.32350313663482666,0.3185880184173584,0.31099194288253784,0.3074173331260681,0.29356569051742554,0.28820374608039856,0.29043787717819214,0.28552278876304626,0.28731009364128113,0.27926719188690186,0.28239500522613525,0.27882036566734314,0.2725647985935211,0.2694369852542877,0.265862375497818,0.2667560279369354,0.268990159034729,0.27613940834999084,0.27792671322822565,0.2815013527870178,0.280607670545578,0.2801608443260193,0.28284183144569397,0.2832886576652527,0.2837354838848114,0.2868632674217224,0.2886505722999573,0.2850759625434875,0.2837354838848114,0.2841823101043701,0.289097398519516,0.27613940834999084,0.27971401810646057,0.2752457559108734,0.2694369852542877,0.29714030027389526,0.3297587037086487,0.3127792775630951,0.30875781178474426,0.26496872305870056,0.2551385164260864,0.23860590159893036,0.23592492938041687,0.23905272781848907,0.22966934740543363,0.23145665228366852,0.23905272781848907,0.245755136013031,0.24486148357391355,0.23994638025760648,0.23815907537937164,0.2260947227478027,0.251117080450058,0.3766756057739258,0.5790884494781494,0.8521000742912292,1.0,0.48704200983047485,0.12377122789621352,0.011170688085258009,0.11840929090976716,0.2176050096750259,0.2685433328151703,0.2801608443260193,0.2868632674217224,0.29624664783477783,0.29624664783477783,0.3011617660522461,0.3074173331260681,0.31143879890441895,0.31992849707603455,0.3306523561477661,0.3328865170478821,0.3369079530239105,0.34361037611961365,0.34897229075431824,0.3672922253608704,0.3806970417499542,0.39633601903915405,0.4146559536457062,0.0,0.0,0.0,0.0,0.0,0.0,0.0,0.0,0.0,0.0,0.0,0.0,0.0,0.0,0.0,0.0,0.0,0.0,0.0,0.0,0.0,0.0,0.0,0.0,0.0,0.0,0.0,0.0,0.0,0.0,0.0,0.0,0.0,0.0,0.0,0.0,0.0,0.0,0.0,0.0,0.0,0.0
0.9822695255279539,1.0,0.5241134762763977,0.22765956819057465,0.0,0.1283687949180603,0.32411348819732666,0.3304964601993561,0.3574468195438385,0.3794326186180114,0.3858155906200409,0.4134751856327057,0.41914892196655273,0.414893627166748,0.4042553305625915,0.4042553305625915,0.42127659916877747,0.44042554497718805,0.4475177228450775,0.4751773178577423,0.4921985864639282,0.5141844153404236,0.519858181476593,0.5468084812164307,0.5723404288291931,0.6148936152458191,0.6574468016624451,0.6836879253387451,0.7262411117553711,0.7361702322959899,0.7659574747085571,0.7865248322486876,0.7879432439804077,0.7397162914276123,0.7070922255516052,0.611347496509552,0.5113475322723389,0.4645390212535858,0.4092198610305786,0.3716312050819397,0.34964537620544434,0.3397163152694702,0.32695034146308893,0.31134751439094543,0.30709218978881836,0.30425530672073364,0.3063829839229584,0.3028368651866913,0.3028368651866913,0.3021276593208313,0.304964542388916,0.32056736946105957,0.30000001192092896,0.3184397220611572,0.32198581099510193,0.326241135597229,0.33475178480148315,0.3432624042034149,0.35886526107788086,0.3411347568035126,0.33475178480148315,0.33475178480148315,0.3340425491333008,0.3375886380672455,0.3361702263355255,0.35177305340766907,0.3539007008075714,0.3439716398715973,0.3404255211353302,0.35248225927352905,0.3368794322013855,0.35957446694374084,0.32836878299713135,0.31418439745903015,0.2773049771785736,0.2744680941104889,0.26312056183815,0.26170212030410767,0.2602836787700653,0.2680850923061371,0.2680850923061371,0.2716312110424042,0.27234041690826416,0.2780141830444336,0.28297871351242065,0.28723403811454773,0.2716312110424042,0.28297871351242065,0.2737588584423065,0.2773049771785736,0.2815602719783783,0.2780141830444336,0.2666666805744171,0.2673758864402771,0.26312056183815,0.2985815703868866,0.32695034146308893,0.3723404109477997,0.4241134822368622,0.4489361643791198,0.4269503653049469,0.389361709356308,0.4014184474945068,0.3765957355499267,0.3617021143436432,0.30425530672073364,0.28723403811454773,0.2822695076465606,0.30425530672073364,0.31063830852508545,0.3120567500591278,0.326241135597229,0.3184397220611572,0.3361702263355255,0.3191489279270172,0.4340425431728363,0.49787235260009766,0.5751773118972778,0.8794326186180115,0.9269503355026245,0.5574468374252319,0.2645390033721924,0.015602837316691875,0.03687943145632744,0.26170212030410767,0.31773048639297485,0.34255319833755493,0.3780141770839691,0.3751772940158844,0.389361709356308,0.3992907702922821,0.40496453642845154,0.40709218382835394,0.414893627166748,0.4000000059604645,0.39787232875823975,0.4042553305625915,0.40851062536239624,0.4170212745666504,0.43617022037506104,0.45390069484710693,0.4716311991214752,0.0,0.0,0.0,0.0,0.0,0.0,0.0,0.0,0.0,0.0,0.0,0.0,0.0,0.0,0.0,0.0,0.0,0.0,0.0,0.0,0.0,0.0,0.0,0.0,0.0,0.0,0.0,0.0,0.0,0.0,0.0,0.0,0.0,0.0,0.0,0.0,0.0,0.0,0.0,0.0,0.0,0.0,0.0,0.0,0.0,0.0
1.0,0.8921113610267638,0.3300464153289795,0.007540603168308734,0.13341067731380463,0.3010440766811371,0.38921114802360535,0.4530162513256073,0.468097448348999,0.48201856017112726,0.5011600852012634,0.5,0.502900242805481,0.5098608136177063,0.5179814100265503,0.5232018828392029,0.5243619680404663,0.5185614824295044,0.5237818956375122,0.5220417380332947,0.5191415548324585,0.5243619680404663,0.5261020660400391,0.5278422236442566,0.5162413120269775,0.5266821384429932,0.5359628796577454,0.5411832928657532,0.5359628796577454,0.54350346326828,0.5388631224632263,0.5440835356712341,0.5585846900939941,0.5690255165100098,0.5771461725234985,0.5707656741142273,0.5777262449264526,0.5852668285369873,0.5910673141479492,0.5974478125572205,0.5997679829597473,0.6003480553627014,0.5829466581344604,0.564385175704956,0.5359628796577454,0.5127609968185425,0.49071925878524786,0.48839905858039856,0.47447794675827026,0.46983757615089417,0.46345707774162287,0.4605568349361419,0.4582366645336151,0.46403712034225464,0.45997679233551025,0.4617169499397278,0.47215777635574335,0.4715777337551117,0.47795823216438293,0.48433876037597656,0.4860788881778717,0.48723897337913513,0.4895591735839844,0.4901392161846161,0.48317864537239075,0.4878190159797669,0.47795823216438293,0.46867749094963074,0.46345707774162287,0.4628770351409912,0.46345707774162287,0.4605568349361419,0.4564965069293976,0.4541763365268707,0.44953596591949463,0.4483758807182312,0.44315543770790095,0.4396751821041107,0.4315545260906219,0.42865428328514094,0.421693742275238,0.4234338700771332,0.4106728434562683,0.41357308626174927,0.414153128862381,0.41357308626174927,0.41763341426849365,0.4112528860569,0.414153128862381,0.40139210224151606,0.39965197443962097,0.4008120596408844,0.4008120596408844,0.3955916464328766,0.4054524302482605,0.4164733290672302,0.4605568349361419,0.4646171629428863,0.4611368775367737,0.4588167071342468,0.42865428328514094,0.42053365707397455,0.41183295845985407,0.41763341426849365,0.41183295845985407,0.3921113610267639,0.3955916464328766,0.36948955059051514,0.3590487241744995,0.3625290095806122,0.36658933758735657,0.3654292225837707,0.3596287667751312,0.36948955059051514,0.37122970819473267,0.37122970819473267,0.37064966559410095,0.3654292225837707,0.36774942278862,0.5307424664497375,0.8277262449264526,0.9796983599662781,0.8805104494094848,0.3758700788021088,0.0,0.10150811821222304,0.2871229648590088,0.37703016400337214,0.4385150671005249,0.4564965069293976,0.4605568349361419,0.4617169499397278,0.47099769115448,0.47621810436248774,0.48317864537239075,0.4895591735839844,0.4936195015907287,0.49071925878524786,0.48549884557724,0.4866589307785034,0.4878190159797669,0.4814385175704956,0.47969838976860046,0.4802784323692322,0.48085847496986395,0.4802784323692322,0.48317864537239075,0.0,0.0,0.0,0.0,0.0,0.0,0.0,0.0,0.0,0.0,0.0,0.0,0.0,0.0,0.0,0.0,0.0,0.0,0.0,0.0,0.0,0.0,0.0,0.0,0.0,0.0,0.0,0.0,0.0,0.0,0.0,0.0,0.0,0.0,0.0,0.0,0.0,0.0,0.0,0.0,0.0
0.9762340188026429,1.0,0.47044485807418823,0.22364412248134613,0.037172455340623856,0.14808043837547302,0.29372334480285645,0.3211456537246704,0.3455210328102112,0.37294334173202515,0.3772090077400207,0.38878732919692993,0.3930530250072479,0.3973187208175659,0.3954905569553375,0.3985374867916107,0.3997562527656555,0.4070688486099243,0.4259597659111023,0.4283973276615142,0.44302254915237427,0.45460084080696106,0.480195015668869,0.5082266926765442,0.5405240654945374,0.5843997597694397,0.619744062423706,0.655697762966156,0.67641681432724,0.7001827955245972,0.7032297253608704,0.697135865688324,0.657525897026062,0.5941498875617981,0.5228519439697266,0.45277270674705505,0.4162096381187439,0.3735527098178863,0.3455210328102112,0.3315051794052124,0.3144424259662628,0.3156611919403076,0.3113954961299896,0.29798904061317444,0.30469226837158203,0.30530163645744324,0.29677027463912964,0.30042657256126404,0.30530163645744324,0.30408287048339844,0.30225473642349243,0.31078609824180603,0.30103594064712524,0.30834856629371643,0.30347350239753723,0.30286410450935364,0.30469226837158203,0.30591103434562683,0.30591103434562683,0.30164533853530884,0.30103594064712524,0.29616087675094604,0.28884825110435486,0.29189518094062805,0.28092625737190247,0.28702011704444885,0.28031688928604126,0.28153565526008606,0.28031688928604126,0.27726995944976807,0.2742230296134949,0.2717854976654053,0.2626447379589081,0.2675198018550873,0.2687385678291321,0.2638635039329529,0.2632541060447693,0.2644728720188141,0.2602071762084961,0.2626447379589081,0.2663010358810425,0.2669104337692261,0.2699573338031769,0.2650822699069977,0.2608165740966797,0.28397318720817566,0.28397318720817566,0.30956733226776123,0.30286410450935364,0.29981717467308044,0.28031688928604126,0.2656916379928589,0.2687385678291321,0.2754417955875397,0.2705667316913605,0.2650822699069977,0.2510664165019989,0.24680073559284207,0.2547227442264557,0.2656916379928589,0.2638635039329529,0.2669104337692261,0.2669104337692261,0.27483242750167847,0.4082876443862915,0.43144422769546514,0.5831809639930725,0.9683120250701904,0.9482023119926453,0.4113345444202423,0.162705659866333,0.0,0.12614259123802185,0.2547227442264557,0.28519195318222046,0.29859840869903564,0.325411319732666,0.3375990390777588,0.3357708752155304,0.3345521092414856,0.3449116349220276,0.3449116349220276,0.3540523946285248,0.3516148626804352,0.3656307160854339,0.3723339438438415,0.0,0.0,0.0,0.0,0.0,0.0,0.0,0.0,0.0,0.0,0.0,0.0,0.0,0.0,0.0,0.0,0.0,0.0,0.0,0.0,0.0,0.0,0.0,0.0,0.0,0.0,0.0,0.0,0.0,0.0,0.0,0.0,0.0,0.0,0.0,0.0,0.0,0.0,0.0,0.0,0.0,0.0,0.0,0.0,0.0,0.0,0.0,0.0,0.0,0.0,0.0,0.0,0.0,0.0,0.0,0.0,0.0,0.0,0.0,0.0,0.0,0.0
0.9723964929580688,0.7089083790779114,0.18569636344909668,0.0,0.11292346566915512,0.194479301571846,0.2308657467365265,0.2446675002574921,0.2503136694431305,0.25533249974250793,0.2565872073173523,0.2691342532634735,0.25533249974250793,0.2766624987125397,0.27164366841316223,0.2572145462036133,0.2986198365688324,0.29987454414367676,0.2986198365688324,0.2929736375808716,0.3042660057544708,0.33626097440719604,0.34629860520362854,0.36198243498802185,0.37892094254493713,0.4052697718143463,0.41593474149703974,0.4623588323593139,0.48494353890419006,0.5069009065628052,0.5282308459281921,0.5514429211616516,0.5558343529701233,0.5357590913772583,0.501254677772522,0.47867000102996826,0.44667503237724304,0.39084064960479736,0.3481806814670563,0.3368883430957794,0.3375156819820404,0.30301129817962646,0.312421590089798,0.29422834515571594,0.3055207133293152,0.30050188302993774,0.29736512899398804,0.3086574673652649,0.30301129817962646,0.30363863706588745,0.30112922191619873,0.31681305170059204,0.3092848062515259,0.2986198365688324,0.3343789279460907,0.317440390586853,0.29109159111976624,0.30363863706588745,0.31994980573654175,0.31618568301200867,0.28042659163475037,0.3111668825149536,0.29109159111976624,0.29360100626945496,0.30301129817962646,0.279171884059906,0.2892095446586609,0.2622333765029907,0.2728983759880066,0.27728983759880066,0.2854454219341278,0.27478042244911194,0.2797992527484894,0.27101629972457886,0.31994980573654175,0.34567126631736755,0.393977403640747,0.3820577263832092,0.3864491879940033,0.38519448041915894,0.3845671415328979,0.3732747733592987,0.3412798047065735,0.3086574673652649,0.30614805221557617,0.2653701305389404,0.24341279268264768,0.2340025156736374,0.259723961353302,0.2340025156736374,0.22459222376346588,0.22584693133831024,0.2208281010389328,0.21957339346408844,0.2271016240119934,0.19322459399700165,0.1524466723203659,0.24780426919460297,0.5288582444190979,0.7063990235328674,1.0,0.5978670120239258,0.1260978728532791,0.02823086641728878,0.10853199660778044,0.16813048720359802,0.2271016240119934,0.21141782402992249,0.22271016240119937,0.22961103916168213,0.23149310052394864,0.23462985455989835,0.23902133107185364,0.2471769154071808,0.23776662349700928,0.0,0.0,0.0,0.0,0.0,0.0,0.0,0.0,0.0,0.0,0.0,0.0,0.0,0.0,0.0,0.0,0.0,0.0,0.0,0.0,0.0,0.0,0.0,0.0,0.0,0.0,0.0,0.0,0.0,0.0,0.0,0.0,0.0,0.0,0.0,0.0,0.0,0.0,0.0,0.0,0.0,0.0,0.0,0.0,0.0,0.0,0.0,0.0,0.0,0.0,0.0,0.0,0.0,0.0,0.0,0.0,0.0,0.0,0.0,0.0,0.0,0.0,0.0,0.0,0.0,0.0,0.0,0.0,0.0,0.0,0.0,0.0,0.0
1.0,0.7212903499603271,0.3470967710018158,0.09225806593894958,0.07032258063554764,0.31806451082229614,0.3767741918563842,0.40903225541114807,0.4270967841148376,0.42967742681503296,0.41935482621192927,0.4277419447898865,0.4290322661399842,0.4309677481651306,0.4348387122154236,0.44903224706649775,0.43677419424057007,0.4600000083446502,0.48774194717407227,0.49612903594970703,0.49677419662475586,0.49677419662475586,0.5129032135009766,0.5451613068580627,0.5729032158851624,0.5987097024917603,0.662580668926239,0.7032257914543152,0.732903242111206,0.778064489364624,0.7993548512458801,0.7896774411201477,0.7696774005889893,0.7122580409049988,0.6458064317703247,0.5722580552101135,0.4993548393249512,0.4567742049694061,0.4283871054649353,0.4051612913608551,0.39032256603240967,0.3812903165817261,0.3858064413070678,0.3864516019821167,0.3838709592819214,0.37161290645599365,0.3799999952316284,0.3722580671310425,0.35483869910240173,0.3612903356552124,0.36580646038055414,0.3541935384273529,0.35483869910240173,0.3587096631526947,0.36000001430511475,0.35935482382774353,0.366451621055603,0.3696774244308472,0.3774193525314331,0.3825806379318238,0.3838709592819214,0.37612903118133545,0.37419354915618896,0.39161291718482966,0.39483872056007385,0.39032256603240967,0.3864516019821167,0.3864516019821167,0.4116128981113434,0.4006451666355133,0.40193548798561096,0.4174193441867828,0.4051612913608551,0.4000000059604645,0.41096773743629456,0.4116128981113434,0.4187096655368805,0.40580645203590393,0.4000000059604645,0.4141935408115387,0.4148387014865875,0.4135483801364898,0.420645147562027,0.4116128981113434,0.39677420258522034,0.3858064413070678,0.40193548798561096,0.4419354796409607,0.46967741847038275,0.49354839324951166,0.5393548607826233,0.5309677124023438,0.4909677505493164,0.48774194717407227,0.5051612854003906,0.46903225779533386,0.4251613020896912,0.3987096846103668,0.3799999952316284,0.3883870840072632,0.3896774053573608,0.39290323853492737,0.39290323853492737,0.3896774053573608,0.3767741918563842,0.37612903118133545,0.4006451666355133,0.5696774125099182,0.5735483765602112,0.6819354891777039,0.9987096786499025,0.855483889579773,0.43999999761581426,0.11548387259244917,0.0,0.24838709831237793,0.35032257437705994,0.3683871030807495,0.4187096655368805,0.4335483908653259,0.4354838728904724,0.4580645263195038,0.44580644369125366,0.4541935622692108,0.4419354796409607,0.44903224706649775,0.4625806510448456,0.4638709723949432,0.47548386454582214,0.4903225898742676,0.5032258033752441,0.5012903213500977,0.5374193787574768,0.5464516282081604,0.5870967507362366,0.6096774339675903,0.6341935396194458,0.6806451678276062,0.7212903499603271,0.7574193477630614,0.7851613163948059,0.0,0.0,0.0,0.0,0.0,0.0,0.0,0.0,0.0,0.0,0.0,0.0,0.0,0.0,0.0,0.0,0.0,0.0,0.0,0.0,0.0,0.0,0.0,0.0,0.0,0.0,0.0,0.0,0.0,0.0,0.0,0.0,0.0,0.0,0.0,0.0,0.0,0.0,0.0,0.0,0.0,0.0,0.0,0.0,0.0,0.0,0.0
0.9762443304061889,0.752828061580658,0.26131221652030945,0.013574660755693913,0.125,0.20588235557079315,0.24604071676731107,0.2562217116355896,0.2596153914928436,0.26300904154777527,0.26300904154777527,0.26300904154777527,0.27375566959381104,0.27319005131721497,0.2782805562019348,0.28959277272224426,0.290723979473114,0.3009049892425537,0.2997737526893616,0.3054298758506775,0.31674209237098694,0.32239818572998047,0.33540722727775574,0.3467194437980652,0.3659502267837525,0.3840497732162475,0.39819005131721497,0.40893664956092834,0.4253393709659576,0.4298642575740814,0.4287330210208893,0.42703619599342346,0.42647057771682734,0.4100678861141205,0.395927608013153,0.375,0.35350677371025085,0.33540722727775574,0.31504523754119873,0.2997737526893616,0.3014705777168274,0.2890271544456482,0.2850678861141205,0.2805429995059967,0.2822398245334625,0.2822398245334625,0.2760181128978729,0.2788461446762085,0.2845022678375244,0.28619909286499023,0.29581448435783386,0.2873303294181824,0.293552041053772,0.2969456911087036,0.3014705777168274,0.30203619599342346,0.3014705777168274,0.3048642575740814,0.3048642575740814,0.2997737526893616,0.30033937096595764,0.2975113093852997,0.3048642575740814,0.33936652541160583,0.3704751133918762,0.3733031749725342,0.3806561231613159,0.4100678861141205,0.44796380400657654,0.45757919549942017,0.3993212580680847,0.371606320142746,0.32466062903404236,0.28959277272224426,0.2726244330406189,0.25735294818878174,0.2516968250274658,0.25113123655319214,0.24717193841934204,0.24886877834796903,0.2477375566959381,0.23529411852359772,0.24660633504390717,0.24208144843578336,0.26979637145996094,0.4038461446762085,0.4530543088912964,0.6323529481887817,1.0,0.6351810097694397,0.18891403079032895,0.0,0.10746606439352036,0.20248869061470032,0.23642534017562863,0.23925338685512543,0.24660633504390717,0.2539592683315277,0.2579185664653778,0.25509050488471985,0.26753392815589905,0.2686651647090912,0.2743212580680847,0.2748868763446808,0.2873303294181824,0.0,0.0,0.0,0.0,0.0,0.0,0.0,0.0,0.0,0.0,0.0,0.0,0.0,0.0,0.0,0.0,0.0,0.0,0.0,0.0,0.0,0.0,0.0,0.0,0.0,0.0,0.0,0.0,0.0,0.0,0.0,0.0,0.0,0.0,0.0,0.0,0.0,0.0,0.0,0.0,0.0,0.0,0.0,0.0,0.0,0.0,0.0,0.0,0.0,0.0,0.0,0.0,0.0,0.0,0.0,0.0,0.0,0.0,0.0,0.0,0.0,0.0,0.0,0.0,0.0,0.0,0.0,0.0,0.0,0.0,0.0,0.0,0.0,0.0,0.0,0.0,0.0,0.0,0.0,0.0,0.0,0.0,0.0
0.9084033370018004,0.721848726272583,0.353501409292221,0.20756302773952484,0.13781513273715973,0.10672269016504288,0.0714285746216774,0.05854341760277748,0.04817927256226539,0.03613445535302162,0.036974791437387466,0.03277311101555824,0.03977591171860694,0.03865546360611915,0.034173671156167984,0.03585434332489967,0.04565826430916786,0.045098040252923965,0.04789916053414345,0.045098040252923965,0.04621848836541176,0.0551820732653141,0.05546218529343605,0.07282913476228714,0.08319327980279924,0.09747899323701859,0.10588235408067705,0.1028011217713356,0.13921569287776947,0.15994398295879364,0.1725490242242813,0.1834733933210373,0.19019608199596405,0.1921568661928177,0.18907563388347623,0.18123249709606168,0.16722689568996427,0.13865546882152557,0.11120448261499404,0.08151260763406754,0.05826330557465553,0.04341736808419227,0.03165266290307045,0.018487395718693733,0.01960784383118153,0.01876750774681568,0.0235294122248888,0.024369748309254646,0.019327731803059574,0.014285714365541933,0.020168067887425423,0.021568628028035164,0.01876750774681568,0.018207283690571785,0.01512605044990778,0.01736694760620594,0.017086835578083992,0.018207283690571785,0.019327731803059574,0.021568628028035164,0.01904761977493763,0.026050420477986336,0.0319327749311924,0.03669467940926552,0.035574231296777725,0.029691876843571663,0.03025210089981556,0.031092436984181404,0.035574231296777725,0.033893559128046036,0.034173671156167984,0.03473389521241188,0.03025210089981556,0.03333333507180214,0.03585434332489967,0.040616247802972794,0.038935575634241104,0.04173669591546059,0.03921568766236306,0.04649860039353371,0.04425770416855812,0.0470588244497776,0.04957983270287514,0.05182072892785072,0.05406162515282631,0.053221289068460464,0.05238095298409461,0.05714285746216773,0.0470588244497776,0.043697480112314224,0.04117647185921669,0.040336135774850845,0.04285714402794837,0.042016807943582535,0.038935575634241104,0.040336135774850845,0.032492998987436295,0.0319327749311924,0.034173671156167984,0.03473389521241188,0.0313725508749485,0.03585434332489967,0.045098040252923965,0.04817927256226539,0.048459384590387344,0.050140056759119034,0.05434173718094826,0.07759103924036026,0.09383753687143324,0.09131652861833572,0.08235294371843338,0.08683473616838454,0.07787115126848221,0.07282913476228714,0.04229691997170448,0.034173671156167984,0.0235294122248888,0.021288515999913216,0.01736694760620594,0.01036414597183466,0.0072829131968319425,0.01036414597183466,0.013725490309298038,0.01876750774681568,0.026050420477986336,0.026330532506108284,0.0,0.007843137718737125,0.16694678366184235,0.2868347465991974,0.4605042040348053,0.7865546345710753,1.0,0.6240896582603455,0.3170868456363678,0.17563025653362274,0.17983193695545197,0.13389356434345245,0.11064425855875017,0.09887955337762833,0.09271708875894547,0.09103641659021376,0.08263305574655533,0.07899159938097,0.07675070315599442,0.07282913476228714,0.07226891070604324,0.07703081518411636,0.08347339183092117,0.0882352963089943,0.09271708875894547,0.09747899323701859,0.10616246610879898,0.11540616303682329,0.11932773143053053,0.12913165986537933,0.14509804546833038,0.15854342281818387,0.0,0.0,0.0,0.0,0.0,0.0,0.0,0.0,0.0,0.0,0.0,0.0,0.0,0.0,0.0,0.0,0.0,0.0,0.0,0.0,0.0,0.0,0.0,0.0,0.0,0.0,0.0,0.0,0.0,0.0
0.9190140962600707,0.9475352168083191,0.7623239159584044,0.3940140902996063,0.15105633437633514,0.028169013559818268,0.077816903591156,0.13239437341690063,0.12746478617191315,0.12570422887802124,0.12957745790481567,0.13732394576072693,0.14401409029960632,0.14049296081066132,0.14647887647151947,0.1535211205482483,0.16021126508712769,0.1623239368200302,0.1690140813589096,0.16936619579792023,0.18028168380260468,0.179225355386734,0.1855633854866028,0.19647887349128723,0.2045774608850479,0.22042253613471985,0.2380281686782837,0.25985914468765253,0.27605634927749634,0.2950704097747803,0.3306337893009186,0.34859153628349304,0.36690139770507807,0.3838028311729431,0.38908451795578,0.3922535181045532,0.38556337356567383,0.36690139770507807,0.33873239159584045,0.2985915541648865,0.26619717478752136,0.2383802831172943,0.21443662047386167,0.19401408731937408,0.17535211145877838,0.16302816569805145,0.15739436447620392,0.15457746386528015,0.1436619758605957,0.1468309909105301,0.1408450752496719,0.14330986142158508,0.13802817463874817,0.1316901445388794,0.12957745790481567,0.13626760244369507,0.1366197168827057,0.12887324392795563,0.13274647295475006,0.13591548800468445,0.12605634331703186,0.12746478617191315,0.12711267173290253,0.1334507018327713,0.12887324392795563,0.13556337356567383,0.1218309849500656,0.12253521382808684,0.12429577112197876,0.11866196990013123,0.11443661898374556,0.1183098554611206,0.11126760393381117,0.10845070332288742,0.11091548949480055,0.10915493220090866,0.10880281776189804,0.10915493220090866,0.11267605423927309,0.10880281776189804,0.10669013857841492,0.1049295738339424,0.10845070332288742,0.10105633735656738,0.10563380271196364,0.10246478766202927,0.10528168827295303,0.09788732230663301,0.1031690165400505,0.10422535240650176,0.10211267322301865,0.11232394725084303,0.10845070332288742,0.10528168827295303,0.10880281776189804,0.10105633735656738,0.10246478766202927,0.11584506928920744,0.10528168827295303,0.11021126806735992,0.11267605423927309,0.11021126806735992,0.101408451795578,0.10105633735656738,0.09859155118465424,0.11056338250637054,0.10422535240650176,0.1045774668455124,0.10704225301742552,0.1098591536283493,0.11021126806735992,0.10915493220090866,0.10669013857841492,0.10669013857841492,0.10880281776189804,0.1045774668455124,0.11302816867828368,0.12711267173290253,0.15633802115917203,0.17852112650871277,0.1855633854866028,0.22499999403953552,0.22887323796749112,0.23239436745643616,0.22676056623458865,0.19436620175838473,0.18802817165851593,0.1725352108478546,0.1281690150499344,0.10669013857841492,0.09119718521833421,0.08697183430194855,0.08626760542392731,0.0845070406794548,0.07147887349128723,0.04964788630604744,0.09507042169570923,0.34225353598594666,0.7964788675308228,1.0,0.8588027954101564,0.43732395768165583,0.17429576814174652,0.0,0.04330985993146896,0.11619718372821808,0.10528168827295303,0.1080985888838768,0.10845070332288742,0.1151408478617668,0.11725351959466934,0.1183098554611206,0.12922535836696625,0.13556337356567383,0.1387323886156082,0.1408450752496719,0.15000000596046448,0.15422534942626953,0.1588028222322464,0.17359155416488647,0.0,0.0,0.0,0.0,0.0,0.0,0.0,0.0,0.0,0.0,0.0,0.0,0.0,0.0,0.0,0.0,0.0,0.0,0.0,0.0,0.0,0.0,0.0,0.0,0.0,0.0,0.0,0.0
0.9618320465087892,0.7731128334999084,0.37828668951988226,0.17430025339126587,0.005937234964221716,0.0,0.06573367118835449,0.11068702489137648,0.09966073185205461,0.1013570800423622,0.1009329929947853,0.10644613951444624,0.10771840810775755,0.11323155462741852,0.12510602176189423,0.1229855790734291,0.13104325532913208,0.14673452079296112,0.17260390520095825,0.1785411387681961,0.17769296467304227,0.18575063347816467,0.19168786704540253,0.20653095841407776,0.2209499627351761,0.24173027276992795,0.25148430466651917,0.2739609777927398,0.29516538977622986,0.31679388880729675,0.33799830079078674,0.3524172902107239,0.3583545386791229,0.3723494410514831,0.37150126695632935,0.3659881353378296,0.34860050678253174,0.31721797585487366,0.28837999701499933,0.24978795647621152,0.2234944850206375,0.2027141600847244,0.19592875242233276,0.18659880757331848,0.1781170517206192,0.16072943806648254,0.15860898792743683,0.15903307497501373,0.17005936801433563,0.16242578625679016,0.1649703085422516,0.16030533611774445,0.16369804739952087,0.1713316440582275,0.1666666716337204,0.168363019824028,0.1670907586812973,0.1658184975385666,0.16369804739952087,0.1543681025505066,0.15776081383228302,0.14927904307842255,0.15309584140777588,0.15182358026504517,0.14970314502716064,0.13994911313056943,0.13910093903541565,0.14418999850749967,0.14800678193569183,0.13910093903541565,0.14715860784053802,0.1348600536584854,0.13952502608299255,0.1446140855550766,0.14164546132087708,0.13782866299152374,0.13104325532913208,0.12934690713882446,0.13782866299152374,0.1429177224636078,0.14249363541603088,0.13655640184879303,0.14079728722572327,0.15012723207473755,0.1433418095111847,0.1433418095111847,0.15224766731262207,0.15564037859439847,0.15182358026504517,0.1552162915468216,0.16369804739952087,0.1653943955898285,0.17217981815338135,0.18023748695850372,0.2010178118944168,0.21628499031066897,0.21713316440582275,0.2692960202693939,0.27056828141212463,0.268871933221817,0.2862595319747925,0.25106021761894226,0.2434266358613968,0.2154368162155151,0.1882951706647873,0.1433418095111847,0.12468193471431732,0.13570822775363922,0.1331637054681778,0.1331637054681778,0.13358779251575467,0.13104325532913208,0.09966073185205461,0.1340118795633316,0.330788791179657,0.7493638396263124,1.0,0.8426632881164551,0.40415605902671814,0.19804918766021729,0.03138252720236778,0.029686175286769863,0.11323155462741852,0.14206954836845395,0.1450381726026535,0.14418999850749967,0.1433418095111847,0.15564037859439847,0.16115352511405945,0.17302799224853516,0.18193383514881137,0.189567431807518,0.18575063347816467,0.18363019824028015,0.18532654643058777,0.18617472052574155,0.18193383514881137,0.19847328960895536,0.2145886272192001,0.0,0.0,0.0,0.0,0.0,0.0,0.0,0.0,0.0,0.0,0.0,0.0,0.0,0.0,0.0,0.0,0.0,0.0,0.0,0.0,0.0,0.0,0.0,0.0,0.0,0.0,0.0,0.0,0.0,0.0,0.0,0.0,0.0,0.0,0.0,0.0,0.0,0.0,0.0,0.0,0.0,0.0,0.0,0.0,0.0,0.0,0.0,0.0,0.0
1.0,0.9940630793571472,0.6044526696205139,0.26864564418792725,0.052319109439849854,0.0,0.051948051899671555,0.09016697853803635,0.08645640313625336,0.08942486345767975,0.09276437759399414,0.08979591727256775,0.09350649267435072,0.09461966902017592,0.10166975855827332,0.1061224490404129,0.11354359984397888,0.11762522906064989,0.11948052048683167,0.12690167129039764,0.136920228600502,0.1435992568731308,0.15176253020763397,0.16512058675289154,0.17105750739574432,0.17959183454513547,0.20000000298023224,0.21966604888439176,0.2452690154314041,0.27235621213912964,0.2949907183647156,0.3272727131843567,0.3476808965206146,0.365491658449173,0.37736549973487854,0.3833024203777314,0.38515770435333246,0.37217068672180176,0.34359925985336304,0.30909091234207153,0.27087199687957764,0.23191094398498535,0.2089053839445114,0.17959183454513547,0.15992578864097595,0.145454540848732,0.1361781060695648,0.12690167129039764,0.12244898080825804,0.12282003462314604,0.11836734414100646,0.12096475064754486,0.12059368938207626,0.12282003462314604,0.12096475064754486,0.12727272510528564,0.13135436177253723,0.13172541558742523,0.13432282209396362,0.12764377892017365,0.13283859193325043,0.1395176202058792,0.1395176202058792,0.13506492972373962,0.13395176827907562,0.13135436177253723,0.13469387590885162,0.13469387590885162,0.1365491598844528,0.1358070522546768,0.13209646940231323,0.13098330795764923,0.12764377892017365,0.13209646940231323,0.12875695526599884,0.13135436177253723,0.13024118542671204,0.13135436177253723,0.12801484763622284,0.13395176827907562,0.13098330795764923,0.12987013161182404,0.1358070522546768,0.13283859193325043,0.12949907779693604,0.12949907779693604,0.13061223924160004,0.12653061747550964,0.12875695526599884,0.13061223924160004,0.12987013161182404,0.13061223924160004,0.13061223924160004,0.12801484763622284,0.12244898080825804,0.12282003462314604,0.12764377892017365,0.12838590145111084,0.13246753811836243,0.136920228600502,0.15139146149158475,0.16512058675289154,0.19035249948501584,0.20296846330165863,0.2504638135433197,0.2564007341861725,0.26382189989089966,0.282374769449234,0.24415583908557892,0.23191094398498535,0.22411873936653137,0.1807050108909607,0.13432282209396362,0.12615954875946045,0.12541744112968445,0.12207791954278945,0.11985157430171967,0.12282003462314604,0.11168830841779707,0.09721706807613373,0.16957327723503113,0.5001855492591858,0.9729127883911133,0.9795918464660645,0.7432281970977782,0.4126159548759461,0.1766233742237091,0.052319109439849854,0.10018552839756012,0.15992578864097595,0.15473099052906036,0.15658627450466156,0.16252319514751434,0.16326530277729034,0.1662337630987167,0.16771799325942993,0.1777365505695343,0.19035249948501584,0.18998144567012784,0.19109462201595304,0.20037105679512024,0.2074211537837982,0.20667903125286105,0.21818181872367856,0.22040815651416776,0.23302412033081055,0.24230055510997772,0.2515769898891449,0.26827457547187805,0.2957328259944916,0.30723562836647034,0.33617809414863586,0.3562152087688446,0.38441559672355646,0.0,0.0,0.0,0.0,0.0,0.0,0.0,0.0,0.0,0.0,0.0,0.0,0.0,0.0,0.0,0.0,0.0,0.0,0.0,0.0,0.0,0.0,0.0,0.0,0.0,0.0,0.0,0.0,0.0,0.0,0.0,0.0,0.0,0.0
0.9278215169906616,0.5544619560241699,0.18438319861888883,0.13648293912410736,0.38385826349258423,0.31955379247665405,0.24409449100494385,0.2893700897693634,0.2900262475013733,0.3372703492641449,0.2972441017627716,0.2985564172267914,0.28871390223503113,0.2624672055244446,0.32742783427238464,0.32808399200439453,0.31496062874794006,0.284776896238327,0.38451442122459406,0.2854330837726593,0.3241469860076904,0.35433071851730347,0.36876639723777765,0.3484252095222473,0.37073490023612976,0.3858267664909362,0.4553805887699127,0.4547244012355805,0.48162728548049927,0.5367454290390015,0.5354330539703369,0.5800524950027466,0.5426509380340576,0.5616797804832458,0.5157480239868164,0.4553805887699127,0.42979001998901367,0.4133858382701874,0.42650917172431946,0.41863515973091125,0.2821522355079651,0.33530184626579285,0.35433071851730347,0.2926509082317352,0.3143044710159302,0.32677164673805237,0.3057742714881897,0.32808399200439453,0.32349082827568054,0.3182414770126343,0.3057742714881897,0.29527559876441956,0.3562992215156555,0.29527559876441956,0.38057741522789,0.31955379247665405,0.278215229511261,0.31167978048324585,0.2860892415046692,0.2690288722515106,0.34317585825920105,0.29658791422843933,0.2854330837726593,0.2808398902416229,0.28805774450302124,0.31496062874794006,0.3562992215156555,0.39960628747940063,0.4278215169906616,0.4337270259857178,0.4553805887699127,0.5203412175178528,0.41535434126853943,0.3418635129928589,0.341207355260849,0.29593175649642944,0.30708661675453186,0.2690288722515106,0.2342519611120224,0.2972441017627716,0.1712598353624344,0.2447506487369537,0.26443570852279663,0.2539370059967041,0.24606299400329587,0.2257217913866043,0.2060367465019226,0.5045931935310364,1.0,0.5131233334541321,0.0,0.19685038924217224,0.30118110775947565,0.36351704597473145,0.26377952098846436,0.3143044710159302,0.30774277448654175,0.284776896238327,0.21522310376167297,0.3405511677265167,0.3215222954750061,0.2788713872432709,0.32808399200439453,0.2585301697254181,0.3969816267490387,0.3372703492641449,0.30249345302581787,0.30708661675453186,0.31102362275123596,0.39895012974739075,0.4074803292751312,0.4120734930038452,0.40026247501373285,0.3963254690170288,0.5104987025260925,0.48359578847885126,0.5275590419769287,0.5479002594947815,0.5538057684898376,0.5531495809555054,0.5669291615486145,0.5013123154640198,0.5236220359802246,0.5262467265129089,0.4074803292751312,0.37073490023612976,0.39304462075233454,0.4376640319824218,0.2821522355079651,0.3536745309829712,0.33595800399780273,0.33070865273475647,0.3733595907688141,0.3215222954750061,0.34383201599121094,0.3484252095222473,0.3490813672542572,0.34645670652389526,0.3720472455024719,0.40354329347610474,0.3923884630203247,0.38845145702362066,0.40157479047775263,0.35958003997802734,0.3405511677265167,0.35826772451400757,0.3484252095222473,0.3136482834815979,0.306430459022522,0.46259841322898865,0.35498687624931335,0.38123360276222235,0.3326771557331085,0.3871391117572784,0.44881889224052435,0.4409448802471161,0.45800524950027466,0.4757217764854431,0.4724409580230713,0.0,0.0,0.0,0.0,0.0,0.0,0.0,0.0,0.0,0.0,0.0,0.0,0.0,0.0,0.0,0.0,0.0,0.0,0.0,0.0,0.0,0.0,0.0,0.0,0.0,0.0,0.0,0.0,0.0
1.0,0.8505690097808838,0.41810983419418335,0.14547254145145416,0.14695695042610168,0.15190500020980835,0.1326076239347458,0.1177634820342064,0.10885699838399888,0.09945571422576904,0.10885699838399888,0.10687778145074844,0.11034141480922698,0.12172192335128784,0.1415141075849533,0.1548738181591034,0.1716971844434738,0.17862443625926971,0.2102919369935989,0.2449282556772232,0.2726373076438904,0.29935675859451294,0.3260762095451355,0.3617021143436432,0.39782285690307617,0.41810983419418335,0.4428500831127166,0.45175656676292414,0.46313706040382385,0.44433447718620306,0.41959425806999207,0.3686293959617614,0.32360216975212097,0.2731321156024933,0.2488866895437241,0.2266204804182053,0.213260754942894,0.19049975275993347,0.18753091990947723,0.19594259560108185,0.19247896969318387,0.178129643201828,0.1860465109348297,0.18406729400157928,0.1731815934181213,0.17417120933532715,0.16674913465976715,0.18307767808437347,0.18456210196018216,0.18109846115112305,0.18109846115112305,0.17862443625926971,0.1766452193260193,0.1702127605676651,0.1632855087518692,0.1489361673593521,0.15388421714305875,0.1637803018093109,0.18010886013507843,0.2008906453847885,0.20732310414314273,0.24195942282676697,0.29391390085220337,0.2889658510684967,0.30875805020332336,0.30479961633682245,0.24789707362651825,0.20385947823524475,0.15932705998420715,0.14398811757564545,0.13062840700149536,0.12568035721778867,0.11578426510095596,0.10786738991737364,0.10885699838399888,0.09896091371774672,0.09549728035926819,0.02671944536268711,0.0,0.13013359904289243,0.5150915384292603,0.9623948335647584,0.8184067010879517,0.39980208873748774,0.14250370860099792,0.14992578327655792,0.17417120933532715,0.15289460122585297,0.15734784305095673,0.15388421714305875,0.15734784305095673,0.15388421714305875,0.15437902510166168,0.1548738181591034,0.1702127605676651,0.18159326910972595,0.18406729400157928,0.0,0.0,0.0,0.0,0.0,0.0,0.0,0.0,0.0,0.0,0.0,0.0,0.0,0.0,0.0,0.0,0.0,0.0,0.0,0.0,0.0,0.0,0.0,0.0,0.0,0.0,0.0,0.0,0.0,0.0,0.0,0.0,0.0,0.0,0.0,0.0,0.0,0.0,0.0,0.0,0.0,0.0,0.0,0.0,0.0,0.0,0.0,0.0,0.0,0.0,0.0,0.0,0.0,0.0,0.0,0.0,0.0,0.0,0.0,0.0,0.0,0.0,0.0,0.0,0.0,0.0,0.0,0.0,0.0,0.0,0.0,0.0,0.0,0.0,0.0,0.0,0.0,0.0,0.0,0.0,0.0,0.0,0.0,0.0,0.0,0.0,0.0,0.0,0.0,0.0,0.0
1.0,0.6799838542938232,0.2643260657787323,0.12994350492954254,0.13922518491744995,0.162227600812912,0.19330105185508728,0.1856335699558258,0.1872477829456329,0.1900726407766342,0.1949152499437332,0.19652946293354032,0.18805488944053647,0.2074253410100937,0.2062146961688995,0.2110573053359985,0.21751412749290464,0.21186441183090207,0.2187247723340988,0.23042775690555573,0.2336561679840088,0.24414850771427152,0.25827279686927795,0.27280065417289734,0.2768361568450928,0.29418885707855225,0.30104923248291016,0.32526230812072754,0.3454398810863495,0.36561742424964905,0.38660210371017456,0.4019370377063751,0.4277643263339996,0.4277643263339996,0.44148507714271545,0.4592413306236267,0.4556093513965606,0.4322033822536469,0.39669087529182434,0.3640032410621643,0.31275221705436707,0.27239710092544556,0.25141242146492004,0.24011299014091492,0.22800645232200625,0.20419692993164065,0.19693301618099213,0.2001614272594452,0.19895076751708984,0.20137207210063937,0.19410815834999084,0.19249394536018372,0.2062146961688995,0.19168683886528015,0.20056496560573575,0.20137207210063937,0.19774010777473447,0.20056496560573575,0.20661823451519012,0.19814366102218628,0.21226796507835388,0.20056496560573575,0.20217917859554288,0.20056496560573575,0.19693301618099213,0.190476194024086,0.19249394536018372,0.19209039211273193,0.18119451403617856,0.18684422969818115,0.18805488944053647,0.1852300316095352,0.17998385429382324,0.19451169669628143,0.1884584277868271,0.17514124512672424,0.18240515887737271,0.17554479837417603,0.17917676270008087,0.1872477829456329,0.16949152946472168,0.17715899646282196,0.1860371232032776,0.18482647836208344,0.19814366102218628,0.2090395539999008,0.24132364988327024,0.266747385263443,0.2522195279598236,0.2542372941970825,0.2853107452392578,0.28208231925964355,0.2574656903743744,0.25544795393943787,0.22154963016510007,0.1856335699558258,0.14931395649909973,0.14164648950099945,0.1428571492433548,0.14164648950099945,0.12429378181695938,0.12953995168209076,0.12792575359344482,0.12267958372831345,0.13236480951309204,0.07304277271032333,0.0,0.037530265748500824,0.2909604609012604,0.6811944842338562,0.916464865207672,0.9713478684425354,0.5262308120727539,0.21711057424545288,0.10532687604427336,0.17070217430591583,0.1836158186197281,0.19814366102218628,0.19612590968608856,0.19330105185508728,0.190476194024086,0.19370460510253903,0.195318803191185,0.19087974727153775,0.2094430923461914,0.21347860991954803,0.21670702099800107,0.2191283255815506,0.2195318788290024,0.22437450289726257,0.2308313101530075,0.23405972123146057,0.25100886821746826,0.26271185278892517,0.0,0.0,0.0,0.0,0.0,0.0,0.0,0.0,0.0,0.0,0.0,0.0,0.0,0.0,0.0,0.0,0.0,0.0,0.0,0.0,0.0,0.0,0.0,0.0,0.0,0.0,0.0,0.0,0.0,0.0,0.0,0.0,0.0,0.0,0.0,0.0,0.0,0.0,0.0,0.0,0.0,0.0,0.0,0.0,0.0,0.0,0.0,0.0,0.0,0.0,0.0,0.0,0.0,0.0
0.9840558171272277,0.7329347133636476,0.30991530418395996,0.11310413479804993,0.13353262841701508,0.12107623368501665,0.12406577169895172,0.11559541523456572,0.1136023923754692,0.11808669567108154,0.12506228685379028,0.13054309785366058,0.14200298488140106,0.1544593870639801,0.16342800855636597,0.17438963055610657,0.19133034348487857,0.21026407182216644,0.21674139797687528,0.24763327836990356,0.2660687565803528,0.29696065187454224,0.3328350782394409,0.3602391481399536,0.3771798610687256,0.40358743071556086,0.4275037348270416,0.42401593923568726,0.4260089695453644,0.3906327784061432,0.3413054347038269,0.2959641218185425,0.25660189986228943,0.21524663269519803,0.19232685863971713,0.17737917602062225,0.16641753911972043,0.15944194793701172,0.15794718265533447,0.16342800855636597,0.15794718265533447,0.15545590221881866,0.13951170444488523,0.146487295627594,0.15246637165546417,0.1459890455007553,0.14748381078243256,0.14299950003623962,0.13602390885353088,0.138016939163208,0.13602390885353088,0.12954658269882202,0.1434977650642395,0.16940706968307495,0.17239661514759064,0.18983557820320127,0.2551071345806122,0.2381664216518402,0.26357749104499817,0.2571001350879669,0.22571001946926117,0.15047334134578705,0.1290483325719833,0.1026407554745674,0.09417040646076201,0.09317389130592346,0.08669656515121459,0.09566517174243928,0.08370702713727951,0.07922272384166716,0.08719481527805328,0.023418037220835686,0.0,0.14299950003623962,0.5675137042999268,1.0,0.7782760262489319,0.3687095046043396,0.10214249789714812,0.1136023923754692,0.13104134798049927,0.10513203591108322,0.1026407554745674,0.09417040646076201,0.09516691416501999,0.09765819460153581,0.10612855106592178,0.11260587722063065,0.11659193038940428,0.14549078047275543,0.14997509121894836,0.0,0.0,0.0,0.0,0.0,0.0,0.0,0.0,0.0,0.0,0.0,0.0,0.0,0.0,0.0,0.0,0.0,0.0,0.0,0.0,0.0,0.0,0.0,0.0,0.0,0.0,0.0,0.0,0.0,0.0,0.0,0.0,0.0,0.0,0.0,0.0,0.0,0.0,0.0,0.0,0.0,0.0,0.0,0.0,0.0,0.0,0.0,0.0,0.0,0.0,0.0,0.0,0.0,0.0,0.0,0.0,0.0,0.0,0.0,0.0,0.0,0.0,0.0,0.0,0.0,0.0,0.0,0.0,0.0,0.0,0.0,0.0,0.0,0.0,0.0,0.0,0.0,0.0,0.0,0.0,0.0,0.0,0.0,0.0,0.0,0.0,0.0,0.0,0.0,0.0,0.0,0.0,0.0,0.0,0.0,0.0,0.0
0.9441717863082885,0.979754626750946,0.6263803839683533,0.14785276353359222,0.0,0.21042944490909576,0.29754599928855896,0.3533742427825928,0.40368098020553583,0.4202454090118408,0.4049079716205597,0.3883435726165771,0.39202454686164856,0.39631903171539307,0.4128834307193756,0.4079754650592804,0.4049079716205597,0.41717791557312006,0.42822086811065674,0.410429447889328,0.43128833174705505,0.43680980801582336,0.4122699499130249,0.46196317672729487,0.4226993918418884,0.42576688528060913,0.44785276055336,0.4546012282371521,0.4638036787509918,0.4521472454071045,0.4699386358261108,0.483435571193695,0.493865042924881,0.5184049010276794,0.5398772954940796,0.5319018363952637,0.5558282136917114,0.5570552349090576,0.5638036727905273,0.5901840329170227,0.5926380157470703,0.5466257929801941,0.5214723944664001,0.5006135106086731,0.47914111614227295,0.425153374671936,0.3852760791778565,0.3662576675415039,0.37668710947036743,0.3717791438102722,0.34417179226875305,0.34355828166007996,0.3263803720474243,0.33435583114624023,0.3570552170276642,0.34233129024505615,0.34417179226875305,0.34907975792884827,0.373006135225296,0.3932515382766723,0.37914109230041504,0.37914109230041504,0.3828220963478088,0.38159510493278503,0.4049079716205597,0.4061349630355835,0.40674847364425654,0.3987730145454406,0.3760736286640167,0.3828220963478088,0.3803680837154389,0.3717791438102722,0.38895705342292786,0.37668710947036743,0.37975460290908813,0.3736196458339691,0.38466256856918335,0.37668710947036743,0.3803680837154389,0.37730062007904047,0.36687117815017695,0.3533742427825928,0.36134970188140875,0.3828220963478088,0.358282208442688,0.36196318268775934,0.36687117815017695,0.35214725136756897,0.3411042988300323,0.3625766932964325,0.3754601180553436,0.36932516098022466,0.3662576675415039,0.3662576675415039,0.3717791438102722,0.3705521523952484,0.329447865486145,0.38220858573913574,0.3742331266403198,0.3638036847114563,0.349693238735199,0.36748465895652765,0.404294490814209,0.4055214822292328,0.4570552110671997,0.43865031003952026,0.4331288337707519,0.4300613403320313,0.4331288337707519,0.4134969413280487,0.419018417596817,0.4085889458656311,0.39141103625297546,0.39570552110672,0.358282208442688,0.35030674934387207,0.3607361912727356,0.34478527307510376,0.3263803720474243,0.33496931195259094,0.3171779215335846,0.33251532912254333,0.35030674934387207,0.3300613462924957,0.2736196219921112,0.37239262461662287,0.6453987956047058,0.9552147388458253,1.0,0.6392638087272644,0.16073620319366455,0.020245399326086044,0.23742331564426425,0.33558282256126404,0.36134970188140875,0.3705521523952484,0.3779141008853912,0.38773006200790405,0.38773006200790405,0.3907975554466247,0.39202454686164856,0.41165643930435186,0.3981595039367676,0.40184047818183893,0.4110429584980011,0.42638036608695984,0.4184049069881439,0.4049079716205597,0.4141104221343994,0.4079754650592804,0.41717791557312006,0.42822086811065674,0.4441717863082886,0.43435582518577576,0.4570552110671997,0.4447852671146393,0.46687117218971247,0.4803681075572967,0.48404908180236816,0.5214723944664001,0.512269914150238,0.5331288576126099,0.5539877414703369,0.5552147030830383,0.0,0.0,0.0,0.0,0.0,0.0,0.0,0.0,0.0,0.0,0.0,0.0,0.0,0.0,0.0,0.0,0.0,0.0,0.0,0.0,0.0,0.0,0.0,0.0
1.0,0.8749222159385681,0.4125699996948242,0.1505911648273468,0.0,0.13690105080604553,0.25077784061431885,0.2781580686569214,0.28749221563339233,0.31860610842704773,0.3266957104206085,0.337274432182312,0.3347853124141693,0.34660857915878296,0.3553204834461212,0.36216554045677185,0.36029869318008423,0.3590541481971741,0.3833229541778565,0.3920348584651947,0.41505911946296686,0.42314872145652765,0.43808338046073914,0.4598630964756012,0.4878655970096588,0.537025511264801,0.5693839192390442,0.5948973298072815,0.6228998303413391,0.643435001373291,0.6565027832984924,0.6751711368560791,0.6633478403091431,0.643435001373291,0.5899190902709961,0.5382700562477112,0.4922215342521667,0.4499066472053528,0.40261358022689814,0.3870566189289093,0.37025514245033264,0.35220909118652344,0.3484754264354706,0.342252641916275,0.3447417616844177,0.3509645164012909,0.3459863066673279,0.3434971868991852,0.33416303992271423,0.342252641916275,0.33851897716522217,0.3484754264354706,0.3397635221481323,0.34100809693336487,0.3354075849056244,0.3447417616844177,0.3584318459033966,0.35158681869506836,0.3584318459033966,0.3553204834461212,0.3428749144077301,0.3354075849056244,0.34100809693336487,0.3428749144077301,0.3428749144077301,0.3397635221481323,0.32545116543769836,0.3360298573970794,0.3329184949398041,0.3347853124141693,0.33665215969085693,0.3273179829120636,0.33167392015457153,0.3279402554035187,0.32296204566955566,0.33665215969085693,0.3273179829120636,0.3117610514163971,0.3148724436759949,0.3217175006866455,0.32109519839286804,0.32545116543769836,0.3279402554035187,0.3198506534099579,0.3248288631439209,0.3217175006866455,0.32296204566955566,0.32047292590141296,0.3304293751716614,0.3553204834461212,0.38518980145454407,0.39327940344810486,0.4075917899608612,0.4219041764736175,0.46421903371810913,0.46110764145851135,0.47044181823730463,0.436838835477829,0.3995021879673004,0.3746110796928406,0.32296204566955566,0.31611698865890503,0.3173615336418152,0.3061605393886566,0.3061605393886566,0.311138778924942,0.31362786889076233,0.30491599440574646,0.30802738666534424,0.3733665347099304,0.4499066472053528,0.5196017622947693,0.7990043759346008,0.9346608519554137,0.6776602268218994,0.36403235793113714,0.15432482957839963,0.05849408730864525,0.24019913375377655,0.29993778467178345,0.3098942041397095,0.33167392015457153,0.35469818115234375,0.3665214776992798,0.3733665347099304,0.37647789716720587,0.3839452266693115,0.38083386421203613,0.39079028367996216,0.39701306819915766,0.3926571309566498,0.4175482392311096,0.4312383234500885,0.4399502277374267,0.44679528474807734,0.46670815348625183,0.0,0.0,0.0,0.0,0.0,0.0,0.0,0.0,0.0,0.0,0.0,0.0,0.0,0.0,0.0,0.0,0.0,0.0,0.0,0.0,0.0,0.0,0.0,0.0,0.0,0.0,0.0,0.0,0.0,0.0,0.0,0.0,0.0,0.0,0.0,0.0,0.0,0.0,0.0,0.0,0.0,0.0,0.0,0.0,0.0,0.0,0.0,0.0,0.0,0.0,0.0,0.0
1.0,0.8804994225502014,0.3739595711231232,0.0,0.1533888280391693,0.2919143736362457,0.36444708704948425,0.422711044549942,0.4316290020942688,0.4334126114845276,0.4387633800506592,0.44351962208747864,0.4476813375949859,0.45659929513931274,0.46135553717613215,0.46432816982269287,0.46789535880088806,0.46135553717613215,0.46313911676406866,0.46254459023475647,0.4744352102279663,0.4797859787940979,0.47919145226478577,0.48275861144065857,0.47919145226478577,0.4887039363384246,0.4958382844924926,0.5071343779563904,0.5089179277420044,0.5202140212059021,0.5255647897720337,0.524970293045044,0.5303210616111755,0.5356718301773071,0.5350772738456726,0.5386444926261902,0.5434007048606873,0.5279428958892822,0.584423303604126,0.5868014097213745,0.5945303440093994,0.5933412313461304,0.5885850191116333,0.5731272101402283,0.5457788109779358,0.5261593461036682,0.5005945563316345,0.4756242632865906,0.4542211592197418,0.44708681106567383,0.4334126114845276,0.42330560088157654,0.4209274649620056,0.4262782335281372,0.42925089597702026,0.4369798004627228,0.43638524413108826,0.44530320167541504,0.44887039065361023,0.4482758641242981,0.4447086751461029,0.4548156857490539,0.4536266326904297,0.45600476861000067,0.44114148616790766,0.44887039065361023,0.4458977282047272,0.4357907176017762,0.4274672865867614,0.4191438853740692,0.4191438853740692,0.4114149808883667,0.4078477919101715,0.4036860764026642,0.3989298343658447,0.38763377070426946,0.39001187682151794,0.3989298343658447,0.39476811885833746,0.39833530783653254,0.3953626751899719,0.4019024968147278,0.3971462547779083,0.4036860764026642,0.39595720171928406,0.39001187682151794,0.39774078130722046,0.39120095968246454,0.3775267601013183,0.3840665817260742,0.39001187682151794,0.3816884756088257,0.3852556347846985,0.38644471764564514,0.39179548621177673,0.38763377070426946,0.38763377070426946,0.3852556347846985,0.38941735029220587,0.3781212866306305,0.38049939274787903,0.3846611082553863,0.39655172824859614,0.39833530783653254,0.38822829723358154,0.39001187682151794,0.4007134437561035,0.39655172824859614,0.3810939490795135,0.3840665817260742,0.3799048662185669,0.38822829723358154,0.41498216986656195,0.45065397024154663,0.43935790657997126,0.4464922845363617,0.4173602759838104,0.39833530783653254,0.4066587388515472,0.4066587388515472,0.40903687477111816,0.4007134437561035,0.39239001274108887,0.3769322335720062,0.35493460297584534,0.36325803399086,0.36623066663742065,0.36266350746154785,0.36266350746154785,0.36920332908630366,0.36979785561561584,0.36741974949836725,0.36266350746154785,0.3668252229690552,0.32401901483535767,0.428061842918396,0.696789562702179,0.9560047388076782,0.9429250955581664,0.48454222083091736,0.060642093420028687,0.04340071231126785,0.24316290020942688,0.3305588662624359,0.39774078130722046,0.4316290020942688,0.43757432699203486,0.43281808495521545,0.4423305690288544,0.4387633800506592,0.4458977282047272,0.43935790657997126,0.4476813375949859,0.44887039065361023,0.44708681106567383,0.4447086751461029,0.4554102122783661,0.4673008322715759,0.45838287472724915,0.4708680212497711,0.4720570743083954,0.4720570743083954,0.4785968959331512,0.0,0.0,0.0,0.0,0.0,0.0,0.0,0.0,0.0,0.0,0.0,0.0,0.0,0.0,0.0,0.0,0.0,0.0,0.0,0.0,0.0,0.0,0.0,0.0,0.0
